,S01,S02,S03,S04,S05,S06,S07,S08,S09,S10,S11,S12,S13,S14,S15,S16,S17,S18,S19,S20,S21,S22,S23,S24,S25,S26,S27,S28,S29,S30,S31,S32,S33,S34,S35,S36,S37,S38,S39,S40,S41,S42,S43,S44,S45,S46,S47,S48,S49,S50
P01,-0.41991160427931584,-1.0252440576753565,-0.6819062351807238,0.0047354662663566,0.01607862560912208,0.0673929625019056,-0.3559036536356769,-0.4778638015270811,-0.07529502807328922,-0.32773182190945865,0.9829977099307824,-0.48365351114703703,-0.12684433375417176,0.09472659475061505,-0.12824673317976398,-0.2548743955063523,-0.5411289268777744,0.22387717572378396,-0.8937121671031201,-0.03311924859228059,0.21816617618796794,-0.054805266074143565,0.7323389225147818,-0.5669391008352019,0.1470090051162374,0.07358322629995175,-0.030456145900341406,0.09053184820963499,0.40336611876919065,-0.011045480904322473,0.2249622772839057,-0.8651129226199348,-0.37223813424102037,0.7181267247800105,0.641301833348053,-0.9190103134415629,-0.059684610855572404,-0.1474977579959918,-0.11230280032062646,-0.003051631759452361,-0.3055964731249265,0.5664124673238335,-0.3315885892720105,0.17648975630468255,0.1023031225230609,-0.07704259932744711,0.09854567034622962,0.048416754427966585,-0.5941184386774833,-0.0026035786178240463
P02,-0.35511397542548445,-0.20141035338210853,-0.9415974858006655,-0.4455384243045986,-0.8412741289830045,-1.2985400389034505,-0.8469166692158985,-0.6624769897652081,-0.400272713035425,-0.9786007369486788,-0.6390701265209272,-0.22515681063327359,-0.5167042917105427,-1.5202866201512248,-0.9527003221932357,-0.5934015979773479,-1.3109728262354596,-0.8212670612891464,-0.6083726564836375,-0.5722871966953965,-0.9168612273700124,-0.2860316392594299,-0.3561027918443841,-1.015758951511374,-0.8116527692536311,-1.2067121979594557,-1.8076300666651717,-0.9147494942297305,-0.6391294939704049,-0.7651478592647311,-0.8789294896096187,-0.05775465577327479,-0.3645168865676279,-0.43637966178338033,0.23864403926303204,-0.893602449010525,-1.391038882649771,-1.63590945276622,-0.6694059040790682,-0.47758753311695884,-1.0452952382386345,0.1483728883732179,-0.4039551022355691,-1.1889931870183372,0.28279099014708176,-0.48978992995358084,0.06133734102303173,-0.8169430910758912,-0.1408035921868073,-0.6041344001323413
P03,0.7186815016095478,-0.2888086103746691,0.2865622366252943,0.08502255044647528,1.31181698515805,0.32785310816526775,0.7007838617647656,-0.18602900470977993,0.9337644640035246,1.580870670454208,0.23138255767342705,1.218705564358114,0.5764879006373284,0.5653918886830631,0.8867819154683574,0.21233316281059111,0.3911085516037108,0.5573441637951118,0.49780267170072323,-0.07728142499865279,0.051903360720076216,0.829368820411409,0.4902090312178559,0.5747340470864589,1.1090570256382835,0.42805280252589584,1.1517309825393711,0.9562583548331088,0.6299282032527901,0.7482029717090334,0.36540896173326737,0.6937918274469711,1.566574544483856,0.44957017557794304,0.1249426481027395,0.1353709966703357,-0.062464510407232145,-0.05173521035870763,0.10465426050209992,0.406063563065798,0.030438223834255717,1.8672439881282767,0.3285280347411084,0.6130305755627388,-0.6409174247678073,0.6189191818272552,-0.5024690074670568,0.3332156565658046,0.7201729147432085,1.2276318171541798
P04,-0.24148086231233645,0.03272032874670381,-0.6327327491412135,0.0010028066397165544,-0.2097433889444107,-0.17484090140229044,-0.42754988297434754,0.10437700165975698,0.20794610333478,0.2031557530313481,-0.4548196841722853,-0.3538649504854,-0.27423302308014136,-0.4274724968403846,-0.15146674494351,0.11126136821978408,-0.023741272471613537,-0.03555680912078328,0.4428996393238622,0.03661108565701489,0.09408954200266509,-0.25307307158505254,0.2711878123319045,0.01439995150414773,-0.5630225733534747,0.4699696182828309,-0.04899620250533987,-0.37248250088667406,0.06509221210860888,-0.21894670057191734,-0.5925602553217383,0.1091223010377497,-0.0035122409384893594,0.17595477999299397,-0.08837229814863876,-0.013595237736286661,0.13929102622818373,-0.90159462514992,-0.2246544382562957,-0.39691309254089246,-0.3441053020465514,-0.10160801613167546,-0.13566159133624445,-0.29163133567956384,-0.5931588307149306,-0.4852870808518508,-0.21472642493081676,0.3668779582690973,-0.5571553933103266,-0.11632576417411264
P05,-0.6800769421916978,-0.7318716252731041,-0.11254141813595124,-0.8280964446123553,0.1889312891059186,-0.9079525407904828,-0.3654351685108666,0.31616536048234567,-0.9053655094106846,-0.3717291166408093,-0.41127927407255555,-0.3034235500456879,-0.4138679575805222,-0.27336458572874894,-0.15199266708918613,-0.36817913763937865,-0.8298678897545309,-0.9815649575266021,-0.7619494555256942,-0.5706868855893562,-0.9396786596966116,-0.7424261910575656,0.7326318770247504,0.18989416455954924,-0.6811391909287282,-0.4080295731654978,-0.19663328089551008,-1.6471073242230054,-0.4390395720848145,0.20967450922108388,-0.4549412509764337,-0.40578359834124333,-0.663405432082127,-0.9791825077552652,-0.46720750686378687,0.11999090103463163,-0.1589685872063018,-0.45588827682658684,-0.22761783524248155,-0.13261363407481822,-1.107409878737465,-0.40189073785377943,-0.40862190335835835,-0.35698408659522807,0.0008837711922425989,-0.7369209243770902,-0.8250329463581692,-0.9117776857535763,-0.6104274612659114,-0.2969840417238093
P06,-1.287114336386321,-0.46282730731571864,-1.3985099998645443,-0.5304135471327397,-1.2060922321913154,-1.0166915280145326,-1.5263721112495314,-1.0103008003914793,-1.1153277112958735,-0.8264219083358569,-1.24859900482951,-0.590945474130404,-0.7434019436562685,-0.8869315141539749,-1.2536357950557588,-0.9677228175782966,-0.8300852642767863,-1.396468662884385,-0.8746433170910951,-1.5098119567395145,-1.1487183639545608,-1.6442802893791606,-0.5603639824399892,-0.9009768871393807,-0.8913134252105499,-0.9459950276473713,-1.1220449117571838,-0.35781047156628654,-1.58591842391279,-1.1652513325881673,-1.0101730590313311,-1.1281562779826744,-1.21728843522476,-0.8232267156853917,-1.2722346220110334,-0.9581231664141918,-0.5933137641053262,-1.0645454704627375,-1.1552844497727217,-1.2894106306624766,-1.8472173154049443,-0.9037534985691257,-0.5752195980396619,-1.0712858206438252,-0.936587973530517,-0.7472330609495237,-1.7346700835768825,-0.7845808445154577,-1.2408231352395136,-1.620647224470905
P07,1.1215561608570974,0.787334885619236,0.8366894787107145,-0.019504779368803942,0.40434593532560403,-0.003778376908898086,-0.1796853204195741,-0.33113036231796955,0.974694178827576,0.8029400089001896,0.05930412244577343,-0.5880889849783847,0.65058258077871,-0.23229084511121534,-0.295998733540691,-0.4376341167854522,-0.2521288015462592,-0.46734204107071053,0.6271020290302095,0.1412578675702749,-0.5268055699932358,-0.1843017641974808,0.47485268796755686,-0.3215971512853432,0.41974893351804493,1.1112580010785447,0.81194662621604,0.19415118995441832,0.26471755225757276,0.11805182635273023,-0.20388151550050373,0.39986260261836387,0.4201398579711988,0.06877993502992949,0.09312113121653662,1.014355184731107,-0.25447055584823913,0.1946933285749565,0.4215498214113473,0.15441564938203461,-0.14757762871676122,0.06786995125566857,-0.23973388612277455,0.3695295801673573,-0.0064808710158414115,-0.37140495892628056,0.16989192671754577,-0.403710744013786,0.03692227534629041,0.8604174296884978
P08,-0.13894378432310747,-0.24549892737274145,-0.5469429380634242,0.3242672951647055,-0.058880765352944335,0.054442255488256396,0.0698303601312642,-0.08767852036438475,-0.4454843078353412,-0.017080312839452924,0.5054435391992897,-1.289734172341961,-0.1587623352926884,0.015304483981377239,-0.0823389428065697,0.09508821862082753,0.3166499800855688,-0.758164454458629,-0.8741630676832824,-0.395163380732053,-0.742024963652482,-0.3829518761390681,-0.1299496551914364,-0.5137266056651457,-0.6238016202025285,-0.33122947212681164,-0.46216841099029665,-0.558162771268735,-0.5297568954482265,0.32139710704019686,-0.08515999248675016,0.08860580858643424,-0.30555164100535764,-0.9338348370698624,-0.321136114981352,0.25519716996609754,-0.24722876806274074,-0.4141831376913255,-0.44861648205126037,0.1525823762096558,-1.036790041951196,-0.5264487618534545,-0.26984764214466106,0.024581905520034954,0.018513320729510563,-0.6337881143720941,-0.7368297003965062,-0.002558750159648383,-0.650033528388997,-0.47336955323887736
P09,-0.8371177626419821,-0.3830305094778175,-0.5362709189744623,0.05023012354366271,-0.48320957158483124,-0.4671114775383465,-0.6382926119709224,-0.9484861017970261,0.032700203030580785,-0.604965209573284,-0.42137334123248726,0.39774656161025324,-0.6603848937310466,-0.3781610181166153,0.4971704414585194,-0.06370441232148293,-0.6999167089267674,-1.0896501477389229,-0.7585629492424366,-0.7917175898271984,-0.5609764106455928,-0.17792788566421258,-0.4920148369710489,-0.07441854352749423,-1.713287653803829,-0.499365499400941,0.28392083271905116,-0.4398073990242603,-0.3515274027109504,-0.5235407113509435,-0.3163449741161944,-0.6247732652809775,-0.5127068989805291,-0.9024316753454681,-0.9548578442471034,0.055662194308362146,-0.7622522603443133,-0.45010691955676935,-1.523370181748414,-0.7358927008760521,-0.9128036891181244,-0.5358314999503819,-0.9671597504380283,-0.9573244988263878,-0.35559710653636933,-0.9205552885293868,-0.9680016857619115,-0.5147722169709718,-0.4437633883326736,-0.754506503328463
P10,0.577253927642764,0.5522240335465632,-0.44028321117640495,0.7627182009296319,0.19602422173257736,0.1973997414305153,0.8075291168340312,0.24071161231489296,0.9371337932752235,0.8845035031380967,0.9151720593644259,0.18817920502361216,1.129458136023029,1.2453460707381856,0.5967018117202746,0.39396731426073817,0.7098207499060211,0.25501478726729254,0.4708005540301406,0.6312153968298501,0.20943546661396417,0.7515547450809742,0.04195974045433016,0.847014246864809,1.6893404519614879,0.41934596080202563,-0.24101616932664147,0.33355653523692574,1.1511880936523535,0.1163569188859371,0.9163463287086304,0.2238665420696675,0.3776057028757017,0.8130553341063302,0.9760490881572286,-0.3765209004854167,0.6665676221763086,0.4379692879580726,0.91055839449576,0.7112491432607236,0.1880185814856437,0.6483105029603988,0.5716953024378377,0.7121724334481431,0.529509281213091,0.2667962980141366,0.6869462911803695,0.8029956164792653,0.6335658096873151,0.5648053061315857
P11,3.3134199083359746,2.068921367400315,2.545582169419554,2.8311994139321626,3.89671920490985,3.355073584547949,3.4085405057237814,3.1019184461442872,5.115253007132813,3.0756963330437705,2.35892834383676,0.6923001908931548,2.7208345404384575,4.120103133212019,3.4166435880451247,3.4064795501044207,3.1504230119629786,2.554368738707161,3.3490256295690726,4.114831834284803,2.0649148618238584,5.404846682412216,4.365841719472668,2.423235778517094,4.6345943788703785,3.328590374479226,4.076117808008418,2.881121238582884,3.6779386414932866,2.72912109592605,5.011021692475795,1.1263896125704698,3.280098661597445,1.6901803698056581,3.8522425823896937,3.4617860619508494,2.998083281902608,2.1927444349049616,2.1398905633530476,3.9809591588088433,2.304776100180846,3.4204513882214527,2.8428821507535753,3.544342831230292,2.4635527195937232,2.8624603989399064,1.5753532458973947,5.399063594066943,3.430971190928023,2.6662279390399206
P12,0.950814955305162,0.1593347246338078,0.37815070812068746,0.368354312026292,0.5765299242875668,0.12899461556438585,1.1226584392613141,-0.29756265523010766,0.4733902992479992,0.6161320941125824,0.2755035192532011,0.5531098783980033,1.5737244293130503,0.7021880532880456,0.8253334926614335,0.4623472798014025,0.19213835573779856,0.4044840107204225,0.41127573939139106,-0.1816768984555898,0.8510172178862738,0.005781148014143509,0.3557318669254704,1.3039797636803272,0.9676012408203402,1.0938372536614271,0.458726021442627,0.18432702442936857,0.021665960118593904,-0.7236771755718086,-0.7754407845709851,-1.167771773587944,-0.13623247109927958,-0.7579598825085682,-0.07815852713569352,0.021733587900599687,1.4031146997175552,0.4899025301356127,0.6459524864418342,0.24668413414132018,0.1863678255013628,-0.27783055470288603,0.24075180598659449,-0.055984777056404346,0.4152017177809407,-1.9406513045358136,0.7146740048395501,1.2605309706137469,-0.07497405536738445,-0.1445225930759025
P13,0.12330231968152923,0.13999242464809916,0.07524776596864702,0.1355823138514798,-0.45810715436718213,-0.18785375031280732,0.09639232464066645,-0.08830472280026531,0.710425925945612,-0.2593210225144326,-0.47086326782620413,0.0602888685185888,-0.4703968156507092,-0.40886903348791853,0.30472209494469565,-0.06676166068766344,0.013277132024176595,0.0966204050972107,-0.270985520942477,-0.347273582752822,0.06548106548037842,0.09633254725284925,0.22362722511961233,0.08923405028511891,0.4665216761372048,-0.0992975877623946,0.062348374182789594,-0.11293905374322698,-0.1055022266459496,-0.01663563415623685,-0.0020511865936848296,0.0905244959376551,0.6082860765370224,0.45284362548368734,0.12627752322207406,0.020448658151637728,0.6116520597477704,0.2054969672935072,0.39886090464539947,0.37958325760548073,-0.02554140461975422,0.1801013284951513,0.6992899707494825,0.06559550012129611,-0.033499311308158246,-0.3716191764463637,0.042436899030307465,-1.2743742785833312,-1.0102045900222203,0.11070228092926178
P14,0.40144665183005,-0.8241178954180342,-0.7729041797446249,0.006741974986528906,-1.4210501044058488,-0.9003454206356054,-0.09318788946364842,-0.08331783500786104,-0.29817617114651596,-0.552675917819721,-0.6813472531053604,-0.8730013300962511,-0.6773284607893345,-0.43929690184884546,-1.0140440667676294,-0.7389572963150839,-0.07826953778076612,-0.16304871469726814,-0.6930052074544627,0.12083702093096574,-0.8126800033353261,-0.7224895520692434,-0.9880790991286067,-1.1818788703020806,-0.436727675074859,-0.5700800486614815,-1.1516995133639758,-0.4350327114865033,-1.8330201194068774,-0.5203877246338343,0.5070674240366994,-0.9578553648203865,-0.2583849516974996,-0.681983419505785,-0.13169345290135728,-0.040591590905194215,0.08323943345798278,-0.6640136482163504,-0.5657773583557404,-0.40748644190541444,-0.7155558836680861,0.17548784217138663,-0.2529412542009716,-0.33964582483058514,-0.3284358262772866,-0.2152228424272988,-1.016329633576321,-1.3119897893146217,-0.7074828169338788,-0.7359551879088978
P15,0.6817636766861723,1.2527741693141006,1.0493442629007588,1.190650522612793,1.5131757033123403,1.1596869472589582,1.504007044480311,1.2209895420766947,1.1899761584337685,1.2107749017159295,1.1189759291357517,1.0655666019661174,1.5688022302125337,1.3913117450248575,2.060121466480241,1.4583880711291803,1.5424097060448436,1.548955756303045,0.795622791313436,0.9866303622481929,1.1385593048500229,1.4629437775524785,1.2013281303209662,1.8866318355814897,1.3686231337816648,1.7926173900894509,1.4883020229893495,1.440708254982168,1.4534813952142962,0.9194322679399474,0.602622637578096,0.979393602647794,1.7120332490766805,1.3607231278959888,0.707409461291484,1.8317621336335415,1.0618710264963005,1.2871542198187984,0.9432926719282699,0.5331291621196464,1.2267002695403666,1.126438570848739,0.8528911690442116,1.1007239200683894,1.913704274982015,1.2729636159061428,1.1330776432445142,1.5173761115350104,1.2142156117460856,0.8635718359153949
P16,-0.14102081803011357,-1.3650695353694884,-0.016088300286973455,-1.2735384964096865,-0.11355948591534977,-1.8379196877464483,-1.4364636252486518,-1.0739919996649498,-0.6757528094437016,-1.2669413062503867,0.024202753401789845,-0.6668612268409443,0.7012343548123626,1.208754954048164,0.7850590484581026,1.0548131002038497,1.8310562944409445,1.0594932165968265,2.123462143625992,0.5817745910696996,0.13500786827610436,1.2036541146412623,0.8822578406405279,1.2251652315157078,1.1964059920176364,0.6963229153328214,0.9783514019488818,0.45998661570654714,-0.3021707143729926,-0.07657127580061908,1.120786329604317,0.4330017225831436,0.39958227990763645,0.6326919192208991,-0.03959017371080207,1.3464543233048334,0.03846794193405839,-0.022329708332837546,1.3621000016221245,0.5541709100176003,0.5315836383215459,-0.5154962169382549,-1.1995744143203217,-0.45736648934311996,0.7817185456333599,-0.7311113520169886,-0.6046062661075096,-1.4773849170351738,-0.3288100400940579,0.37446829299961387
P17,1.1078217687895384,-0.24845732235500836,0.645426672975311,0.2640314839610337,0.05358159918997294,-0.878579062259997,-0.5678576924925391,1.1592204437464892,-0.07993639470144728,0.6674473047281335,0.5383205091693788,-0.12316187205250834,1.0458566188590623,1.0510555643362198,1.5963488420989607,0.9884941184580109,0.18478385132725555,1.312382898466891,0.6058586681569017,0.46838949104694877,0.666483801262983,1.2825293859279447,1.1319128126031042,0.7257050758892077,0.6166362317314522,1.0346642067819238,0.5348680472201613,0.5944839104528797,1.2116078268432924,0.08945562010826122,-0.3341016282524,-0.518800680323256,-0.6960966016623935,-0.7170071395916121,-1.1720789140804948,-0.39002084286007854,-0.8448092192957847,-0.6016082481516122,-1.5699733357303236,-0.6764450264082494,-0.7233310066100824,-0.3721560990866275,-0.4305648200737986,-2.5789957665750296,-0.7392044121423551,-1.2291381801519483,-1.1289348943554633,-1.4413942533560755,-0.2704808246455924,-0.9435412684230724
P18,0.11230157088307989,0.49768720155230534,0.2914472376003397,0.020880154672439488,-0.029211744310247697,0.5077607774671618,1.1337755483852452,0.727614787567543,0.46236296740867,0.7600606906435365,0.3490978410610656,1.0214607284093677,0.3250005737992343,0.4590071133788713,0.27264739084857786,0.7320742137813295,1.330213246619015,0.5156632667844125,0.9772159496597852,1.1269981624596757,0.5914167907547262,0.6135702986088362,0.28520922756322953,0.3424458891429879,1.3523088406739958,0.578660225323418,0.8430430692475898,0.6090630108854262,0.5996005666237578,0.4622593692420422,1.3394254021190943,0.7208022294388587,0.3628723619976856,0.24687011443508905,0.903479172731159,0.623809173312754,-0.08348410264926184,0.8502779898836129,-0.038243083355255135,0.08491004785137822,-0.7490068294360327,0.3176186131843986,0.48513319224828,0.3965092864991445,0.4607108570416829,-0.2999239437997091,0.6241662119208634,0.4097471089345552,0.6117943596212811,0.7408508663373748
P19,0.7268968867284554,0.7044691686947766,1.3153850494701587,1.074688102995508,1.7373640930163348,0.5836175710900559,1.1973017010568192,0.5643264891821929,0.537164420154301,0.37471369938188104,0.08921476820624721,-1.0401179017368218,-1.6003281924828872,-0.8312793902571226,-1.1002456894769088,-1.2110353805956644,-1.3396852931071042,-1.0680355589890047,-1.3262515960556513,-1.0127020471788217,-1.0736641953410364,-0.9905890600196946,-0.8559713855704916,-0.6941407560975776,-1.3713846884992054,-0.6618290927096159,-0.8158338691870244,-1.4237997427280034,-0.11768542713056913,-0.5175169710470195,-1.890388782130297,-1.4096926959811529,-0.5816601367757921,-1.2917502219408132,-0.7553115859128811,-0.31087091775593517,-0.8326122137675878,-0.3622495625783411,-0.9087411761067539,-0.37772063382587706,-1.0652641118959436,-0.8711757143457298,-0.808017613236324,-0.2385438487098971,-0.7535531492331603,-0.9037193440802042,-0.9368682347381005,-0.6219984256451805,-0.4649507245836367,-0.2701118827962424
P20,0.5611420214782342,0.9531945425745634,0.8235783101481996,1.5625567556756452,0.48964695577972844,0.9275287069392241,0.525539416823161,0.9731167752958951,0.6940238359922684,1.5535185594383196,0.3396501248667156,1.7899474450089372,1.6533239705063492,1.7064667408170309,-0.038760353600077596,2.106136089417192,1.640714926499564,1.9782872510172202,1.810307721537912,1.917435231865494,2.2489426615685435,1.9429382543635696,1.7644808166966688,0.348822748400094,0.2189860435168835,0.20730693639183298,-1.1524723680902778,-1.1675594512438288,-0.6385675162374478,1.680252138171987,1.1918137329569882,1.1255577066163989,0.20918103717982028,-0.12185772443554746,0.5375286043221488,-0.06190815755802568,0.004504312743103873,0.4903369652224242,-0.055887091646491874,0.22133617385978238,0.4316088832433781,0.7359093445313329,1.2733443358173406,0.24748957420713943,1.3111030454088661,2.1821588922009725,-0.08770736384916242,-0.03890496198158435,-0.012508048249242093,0.08681087440389886
