,S01,S02,S03,S04,S05,S06,S07,S08,S09,S10,S11,S12,S13,S14,S15,S16,S17,S18,S19,S20,S21,S22,S23,S24,S25,S26,S27,S28,S29,S30,S31,S32,S33,S34,S35,S36,S37,S38,S39,S40,S41,S42,S43,S44,S45,S46,S47,S48,S49,S50
P01,71247203.57800643,39563353.92914969,48885965.8723181,38954511.8859061,46900321.95310891,38925341.04209007,41604153.67448492,40406792.50494589,44789138.55874764,37411814.94810811,42206435.91717112,41285439.51956869,32355198.12465339,42172026.63154321,48304867.36810048,46243748.16445458,36752487.63892053,42592398.03658213,39254179.24523767,51963739.47826649,45199719.69234315,42381645.507072136,39943925.99316886,58259277.329052046,48263362.37753006,42190611.90190375,41127114.63172856,41714587.32582098,33084314.94118557,50421304.61996721,39817774.16724182,35504055.226287395,35626376.43978411,55923056.39395593,31532561.89324425,46350281.27655529,41777024.40647115,34402235.90245034,39927477.70414065,41197849.787941724,47023561.67439386,42262440.30847037,37313010.75828497,44005002.63656728,37099440.34272395,55661918.90497464,31990655.94087305,41872727.54819385,47942644.72630248,46071591.18685977
P02,44214685.853200674,30987138.945743255,36603981.39429347,32098851.31957007,49199895.7715701,56264695.931129515,52760547.46514031,26993495.01100134,59634038.584423035,59214620.55229074,41008138.002150044,33200618.107506454,28765822.957375556,31197002.36996056,29886982.39478866,38945992.4442902,45116697.79982436,37457695.252282575,42198921.57218264,50500038.96549549,36548809.56259099,55567984.08753579,29318709.427333817,40523529.3525805,31005369.762115017,34381795.02747634,43291472.2320439,33354554.059010442,51170732.820823595,52338522.860856935,54735038.858544365,68827413.49720831,62585623.386772715,47233959.437800154,74929733.4360429,56206881.714375846,71750707.47266245,42638086.30299079,53055696.48331183,27247165.52573722,37741715.03446248,35622203.43978793,55585353.63087133,46512515.890123755,41513061.23069525,44331534.40294621,41034640.043850094,43094360.854793526,43881350.32388434,39590716.56264851
P03,81211525.49017921,85039886.0777053,66732614.39312429,72149148.853745,91731174.22619176,68854342.82696858,109369150.34640406,78633042.07410087,109337154.7425114,105017904.19301191,108321760.39411491,92883133.97089073,97439021.11175673,76798039.13119143,70590669.80939059,51501175.239631,84723569.32157728,80688010.35689816,79002303.2591646,54981785.60159997,67414191.47661613,125942814.68987745,79661738.7152883,81866522.26211771,71545835.4760164,67098050.373801604,54032486.23886119,45717519.11914531,59045759.64897181,68205733.47912738,53445619.927388355,69335388.4436677,95443230.51074538,76697894.67326412,43120319.28739706,81110517.86756591,58406914.66591808,62579115.376469836,64060412.962619916,56568994.26549642,78370368.63548958,88173539.72381037,64205732.37590596,66383961.00222203,80979857.75040063,52169097.1265838,62825679.76032346,65965137.46194193,51757772.76599868,51338601.81274091
P04,33557571.27724591,29009309.945397995,36163100.10736757,33665789.062135205,31706253.386378013,29052162.432026416,37331651.7644616,32839591.131413825,41361615.92507403,38588967.03494189,30081872.071799304,22139195.376096763,25134855.526467513,21634834.44594226,25207501.08243628,53394830.97440804,33847727.210666984,46190721.598543495,29555904.991843797,27160074.27515191,15943561.426496645,44245036.91257045,46411130.80956429,30246577.905568004,24543630.10902477,26788077.23823663,43779390.35273217,30216847.006476443,19696970.62638777,42461568.172649786,59505438.89485888,35360871.48270248,39666026.59902355,26771151.062263917,34399318.944566175,30259161.502127834,31223097.232384868,28957258.76917236,32903724.141305424,31252836.366845973,19260484.817093723,36525965.86511789,29185273.817365512,31135695.138601467,40271967.31061266,40000302.10268311,30776503.90954753,21501549.362984765,26617629.963418648,47552527.79906245
P05,22124655.454744607,24433440.335589577,20883487.047509715,25059603.441648837,19118423.62163351,20864452.66128077,15102404.856021322,28993870.61302413,24320754.048917465,14921283.391700279,20336642.322354816,18250314.973944902,20495647.01935827,21426861.81121952,20305235.126781613,17850331.15868718,26012159.466092564,25187154.4384869,15640914.26051832,23096765.48375549,39816878.66050894,23865689.500260785,19615920.481932137,30699503.02223456,19515650.444464635,24377853.090484977,33413485.09847975,21268728.569735263,20829234.477216534,25362103.52721055,19829878.65031082,31246282.066854972,22832041.408383235,19602119.75380985,21114625.38782309,15706342.538889712,32079222.391132146,16706312.465522878,19653696.48045608,28974178.135807775,20934806.89666756,22789555.89035186,28017244.246338747,28571113.93255473,36962603.72741337,20610931.985389683,27076861.12916917,26275335.61097288,27678282.806238502,30799066.51324431
P06,45749913.28184979,63321627.05928254,45734669.54947122,34095763.57237662,45490043.93309475,39646427.080935836,43920904.254340366,46398691.38920991,38611297.12147392,38376996.54037385,30995049.805545494,63038359.05182493,47752334.37254454,53373462.88907345,40045566.072337255,34950040.474579446,50564659.303912245,35466696.33045342,49389139.61717417,47839080.137574874,48896329.04163688,67384153.42075442,33810556.64475281,45903650.75916218,45773337.59929891,35973013.71589186,47373612.91782397,37436893.974876046,43717052.792367935,31211783.16906991,45393187.969299726,30878411.129639514,60064476.000059664,39831023.73768351,43112904.65469536,44120019.75299535,43278007.66524872,55363656.14747146,33760928.515525945,38333212.546310164,39439038.174159005,41823563.27919958,46359691.514725424,35513286.34154114,40175643.59101823,48636634.02951191,36800314.108492285,36748976.831957586,37534890.34668954,42724657.2895642
P07,29388380.22288095,42178972.586766966,29064947.140726358,25158903.34876085,27081959.026054345,24484500.3331841,38643643.4601064,30270897.33586262,22144129.05519931,33475313.335958723,30819281.167452835,31904126.259793207,22108811.378113262,27306508.824647382,42328853.2590946,35723914.12019096,37132210.51267261,40093492.282772705,44977047.28904036,27091051.450039074,41702186.80277626,30344429.904888615,42812485.514627956,68766605.56544963,67810026.68738598,48534854.801137686,29792170.053339157,40205438.02848613,44841207.307127416,26316105.068714455,29099020.942824937,17655038.91538515,39452851.7189378,22444999.590873424,51839141.4423662,40697698.73030765,33213935.8083242,36836640.132937044,21577266.88186996,29850174.406678017,35054531.44104483,27289571.839994706,31558724.613393076,33517696.477733497,30061575.306894295,35520058.68545737,29602083.708833314,29514257.41002989,30863355.23810359,26147383.455120493
P08,90335085.25172606,102105303.23719326,81289971.72473483,78061195.21776901,80201895.36641334,110147995.20550328,125586595.4808149,95538867.09726036,161769548.854783,93923477.31156605,67618653.96928588,133917260.76227114,117500160.34196097,83466462.32236436,91245811.98290412,70321043.03842749,74595326.52027202,84754557.97302912,59300638.87968902,64874143.92698683,115508141.85482594,66078993.222839765,70691322.44572628,74431133.34445994,101595041.14719783,118103814.89378981,92016316.16559409,96040693.25363928,103200082.73785874,78780622.40470985,101002559.35227463,73318195.35495663,98464400.42420328,96662587.35903656,116329215.39675723,72431538.43320018,111212009.17803459,73994013.57114872,122421964.06599545,100824818.36440371,90652298.45007758,73671151.67831488,132479605.41617882,151991229.41202188,91385306.83216491,108844362.1729339,114320340.53447299,68742409.65232581,75704637.98800911,98693390.17911954
P09,39727646.7023586,30035825.74203283,26879500.26038715,38075722.157857604,33224254.37626391,41578149.62044701,28917751.203244872,32199313.669521328,44315878.34264569,29834489.2527579,39371839.94645066,30285599.80374916,52814708.8416536,32095784.455877915,34932792.325587094,31053534.35492085,30357579.43915368,54818446.39104223,28502405.900365613,49879858.69776499,28017376.18198498,51145398.62752765,31749629.608977888,29279783.102340747,30464606.88944918,35492874.82379933,35563820.68241075,32621304.118990995,32830884.764740363,40575885.12245105,37654612.98518096,29400065.376987062,22215618.711546272,28275596.788781203,35204153.52248755,47355975.160938814,31747271.15391431,34901996.84641075,42520658.01750317,25318293.051007245,32123636.288929038,30061084.963777643,18721828.749889646,23028153.17150961,32795676.014335454,16419537.448572464,37351983.976257846,30656549.200651687,34902589.40153376,26847311.07121801
P10,46835747.85487414,54072506.53613925,57306480.74654347,39839191.022968,28594093.295408413,26337266.52310118,35671689.55120826,42861443.93789148,50988761.19546236,59952854.37249054,44731138.92539806,30562191.283548184,54519551.4718773,42178633.81811838,48021859.07649146,40395422.99106065,47770035.25234419,29950082.335690666,39742409.085585445,35759783.15729714,23911230.853061855,39044378.43557429,35090448.98898644,40839546.2927706,50309214.90660392,28739318.804852534,41316970.88253306,37692984.63576466,41159442.73403345,26996439.210918624,39130307.13787478,27229815.780834544,22393311.02949516,55778475.98570173,45959270.7668282,37332633.09283722,41755772.12489192,38658720.34646614,52351296.32716794,33092684.012505814,22625209.704665937,32570739.612569097,40473807.803809494,46269942.6919285,40396185.363542095,36650226.76635816,28550060.428226463,28470441.990257155,49855071.61326361,28676989.502318293
P11,60075231.47499071,40884206.18560849,73572940.15999395,38839957.39784095,52400729.20710583,52281227.7428405,60980797.26027611,52271223.63131611,35277741.827594936,34665688.22068425,58467152.053637825,9598134.644836359,46028906.42235333,47930185.27820994,14765553.82274272,47954421.71303966,51178629.85194847,38871906.700956695,17762225.81224018,39068889.07037403,13292527.063756788,44851209.09906056,48445081.683853395,14239134.3814582,50173707.53874464,50709685.292197004,40644363.206643805,42300751.83827065,51312888.36484343,16750388.273243941,34612975.535637885,20914502.297627542,19428374.518620055,40032095.850576,12855178.184854902,48726882.626511425,42025851.36309249,43601745.228722006,16833942.83617283,40592290.377186164,37438280.98365311,79506757.51729889,17240414.999206986,61408126.8432056,17292736.48804199,58491942.67430763,39172478.43794599,14385629.970750429,12190656.720537513,14214340.566012934
P12,41968265.36769511,16116608.732538339,31626241.403002158,31584853.522336833,47954403.01299971,24436017.292444907,33013479.709511295,43292138.43220046,35546557.07573992,29786235.47321871,30330207.23129232,42345105.44522344,35619770.9509699,33974007.592037626,37223434.434750736,39353662.596232146,42812161.50525053,44058642.40412734,36183396.08013463,44708053.320349135,39232989.74369365,32756136.037558194,31027458.117662184,31630083.447220594,33299276.083911337,44120609.62445241,23196969.165740527,17473728.50127433,20376619.951880943,24526280.27133516,27425434.033933192,22336334.172696352,19337544.99270188,13176036.368742358,28657435.409985557,27606981.42796088,34062256.66867396,39444322.22335725,40050437.42699102,38246329.39637506,28274958.81677968,21475762.05182662,40008208.00319746,22545676.302341256,46574501.74797869,42471501.55897579,45072656.91679402,69190654.6830456,36399981.62585406,43795419.64916046
P13,7442403.909222075,4218427.69381953,3695564.4156784993,3980978.5314869746,6033415.051787872,5900431.9702521805,6163459.325546792,7118841.515153144,5975737.622658566,8993958.177312143,6563513.762603203,9100084.49301726,8928520.60984645,8801630.452311072,12029238.64279772,12061223.593547642,12861306.909429802,14089209.918281265,19526252.754505225,19435319.0841403,13723057.769790456,24642111.223705336,21398128.839631885,25890589.74027657,31101770.744441275,21211787.422064252,25284380.353676997,16507598.70487339,18636968.712873578,16049239.780525804,9871687.599804576,11722632.431141082,12426893.811226498,10038789.573127031,13236805.53472758,15222997.455058608,5750700.398148075,11530567.552028716,8422302.074322332,11179252.58447997,6898935.85232376,8922674.835694283,10147394.447307028,8661519.856190704,6046565.437437445,9648332.503685543,10145234.073784031,10800923.315980606,10119535.57630324,7584830.133883424
P14,6451757.4102275325,4928874.218013456,4921710.362783397,3917278.7117412332,4538963.905319988,3430057.55909314,2512086.668747582,2857455.2483280348,2289362.8836214137,2775529.069772063,4136557.89229313,4517469.847183105,4837518.255503893,2980929.3921569195,4293614.15854469,4469082.999704013,4951772.641955098,6421954.210393639,4510056.522892031,4781564.762805994,3849335.695404945,5497259.633870307,4721198.140493704,3774100.303132385,3788744.388628993,4193768.6765067913,2727660.063404968,4720300.892112266,8229118.066646006,4537031.293110667,3279424.666137108,3830581.2023854326,3330336.8558049784,3784937.428953412,4902836.149072539,3110100.927389034,4310287.720219891,5787204.211420447,3939707.738170116,2582502.2887327354,6932061.301660572,6470796.215964485,2142341.5283404035,2739465.9446597067,2298940.0449414575,845423.1358511788,2409079.899254707,1156487.734085496,1965981.051124453,1321544.5976952952
P15,25714788.094251007,41893271.96784851,24495004.477098294,36049705.39372322,31856856.5807017,43016695.92364746,26315932.83600261,41914101.24345964,41051034.33525288,48678242.55465829,42603141.69742318,40960070.157940164,43574145.10887462,43820129.70772175,45517251.16717582,42823354.97732051,48459850.837000385,39874730.63554062,39306184.2047766,48719411.14382773,39177933.871324465,41353513.6825863,48128284.96117627,41592759.52708143,32094790.81945015,44182010.48643987,37221960.653576314,46686173.79291518,35968700.781672224,43619204.751885,35932018.64289008,32621735.509270743,35257670.205647334,29860888.10981171,31164479.5470026,34726798.81904754,36593428.476964,31870336.40034209,37731709.27681696,39244423.91530958,40653824.42306853,32459000.31564744,63830468.17146546,39552559.02937165,47200049.6751923,36214615.30834321,36328238.56091787,59758047.6677096,41809061.407156914,34335722.417761914
P16,21542745.506738767,27240057.024540804,13942898.473645974,32508051.585813835,26498416.135064587,21490533.05889584,36331630.325756595,28347536.862195324,21328481.10940575,29868846.170396652,30215518.55628858,29470595.40121243,37586404.761077836,34336813.42392108,51471761.5098615,49944947.13731867,42862860.28464006,28788560.291535914,51889325.13473834,42623199.18720618,36257313.49094261,68555004.26068354,55333342.20694985,68614238.66691354,87575318.2840738,47580264.88805247,112657954.58701205,71806924.43441156,77638519.20998326,81520495.86874983,54011389.109549336,71059585.35450844,70443047.5245949,70590817.26183623,83575679.79702951,62598296.70505711,59711164.499519594,70558597.56847876,59773719.1754348,74327317.03757052,39109770.6192702,44705359.41771933,50931891.87532413,49970267.79726002,64462961.125846095,61133732.48633987,50408307.05190474,135929864.93884408,55320719.8614036,70092895.57099494
P17,160039675.9612056,78775871.8129609,76420403.95073126,94402001.18870977,104553092.07040179,109358974.09209718,133867013.39465497,89799236.6910915,102406946.9115856,93490972.50608002,88159713.594671,86927712.24089575,89251373.4286728,98714981.29758677,69273861.78697881,99361382.49372202,115967334.09250067,100841737.53424665,109460277.74428919,99875202.00468278,97422451.43145397,121291642.5658159,122592111.45052665,94298566.44018134,91483450.90611118,94262699.43175292,98898202.89510468,83381680.5570349,84684086.52056986,131559174.34916118,102429248.54906671,73852033.53835355,85501549.65036333,78335805.5913862,95341504.90472545,93117098.37806652,92434569.99254923,110202912.35177383,152969593.08403316,141876462.652527,62092631.864815675,91046116.55083476,101180645.48468098,94459381.75188878,106673513.22542487,138837832.09474397,89852210.31660794,80404211.71832287,71175982.33430903,144052526.98258197
P18,51419051.90368599,60253503.29365862,54567394.87643487,75557441.60889453,27299192.319653425,56363300.20952882,116252060.92063516,50183997.54762407,118252439.38217181,147324039.55862278,140534313.11127144,128689504.21297681,69760105.92113978,175898610.66421598,158312802.00693023,148444671.60849673,163176604.7802931,177212313.33350095,134102799.59369886,109397591.03813025,184482363.79867417,155401707.86619964,71836621.19513291,124626061.66751108,151078346.01808608,106853163.81767462,147263256.33787662,86893641.01600915,72637825.39376551,185923521.7832957,72635452.59241684,80056056.18011814,85211843.51442614,88034731.32523555,65607887.06959826,59862278.407753244,41529192.46215692,50550143.664685376,46666678.344849646,42080296.69001112,31872800.59995967,35564390.50574717,41238637.9928554,28910710.283128727,49663702.96587989,39530346.863229856,22042825.267665222,43003018.476221696,27754632.066358846,32209444.633907918
P19,33914249.38733168,27518314.952802643,48453197.7761381,29526790.188962072,51075921.675318465,29570874.931264654,40026085.28864688,48168793.550737806,41206448.7780451,26824173.81429294,27023854.659924764,20902903.917060938,20911680.204018507,22140101.304622203,25469568.339428008,20723423.968788564,32315235.556834467,24783068.34656047,39488959.881126866,22965722.167611882,16928831.691253994,17260199.22548585,22627402.08529432,23268203.239187784,27485346.703163117,24036694.10224202,20201034.53166818,34043466.82459952,29548694.79816611,24990192.73114753,26594843.454928152,21414322.536921248,22675968.445612594,23334233.877735816,28617614.66111251,25225075.07752015,24686678.521068398,27354384.63802679,24646343.298331574,22821769.706331998,26227277.510465667,19035448.27356822,30282851.71485752,37679274.056026146,34939718.282261804,18646840.134215634,29154336.010791745,26652064.965594314,31229217.86975646,20311932.629085533
P20,13516076.153116152,30033980.592376053,25477030.509193435,45714595.39602149,28629394.33499578,19461969.62276385,51184103.9878144,38881220.09440999,31225790.629251335,39662439.5297653,52235418.63706787,53036208.87795022,42118445.68212924,49454347.1880804,31793605.222049024,97440633.59316781,24789128.03619196,33317045.33265429,24704701.09121598,29295413.01036212,26013130.64826291,25005537.197852306,28051946.41779711,164106026.9177794,184270418.05837393,180972879.1531998,142082709.6191211,89545703.83433981,809226408.3922462,61304225.72175868,42906022.529583074,24640650.80449606,29166959.778442465,28711307.178941168,28005847.039035648,51608857.13855048,30169820.29020733,64262183.8579986,56431199.97492972,72024529.16792545,56817652.426986694,75119128.29799047,50240818.6868156,31328447.36296307,71238089.22086588,79827223.50001225,10561726.004706586,19315231.07557712,31832618.661634136,15362675.305384727
