,F01S01,F01S02,F01S03,F01S04,F01S05,F01S06,F01S07,F01S08,F01S09,F01S10,F01S11,F01S12,F01S13,F01S14,F01S15,F01S16,F01S17,F01S18,F01S19,F01S20,F01S21,F01S22,F01S23,F01S24,F01S25,F01S26,F01S27,F01S28,F01S29,F01S30,F01S31,F01S32,F01S33,F01S34,F01S35,F01S36,F01S37,F01S38,F01S39,F01S40,F01S41,F01S42,F01S43,F01S44,F01S45,F01S46,F01S47,F01S48,F01S49,F01S50,F01S51,F01S52,F01S53,F01S54,F01S55,F02S01,F02S02,F02S03,F02S04,F02S05,F02S06,F02S07,F02S08,F02S09,F02S10,F02S11,F02S12,F02S13,F02S14,F02S15,F02S16,F02S17,F02S18,F02S19,F02S20,F02S21,F02S22,F02S23,F02S24,F02S25,F02S26,F02S27,F02S28,F02S29,F02S30,F02S31,F02S32,F02S33,F02S34,F02S35,F02S36,F02S37,F02S38,F02S39,F02S40,F02S41,F02S42,F02S43,F02S44,F02S45,F02S46,F02S47,F02S48,F02S49,F02S50,F02S51,F02S52,F02S53,F02S54,F02S55,F03S01,F03S02,F03S03,F03S04,F03S05,F03S06,F03S07,F03S08,F03S09,F03S10,F03S11,F03S12,F03S13,F03S14,F03S15,F03S16,F03S17,F03S18,F03S19,F03S20,F03S21,F03S22,F03S23,F03S24,F03S25,F03S26,F03S27,F03S28,F03S29,F03S30,F03S31,F03S32,F03S33,F03S34,F03S35,F03S36,F03S37,F03S38,F03S39,F03S40,F03S41,F03S42,F03S43,F03S44,F03S45,F03S46,F03S47,F03S48,F03S49,F03S50,F03S51,F03S52,F03S53,F03S54,F03S55,F04S01,F04S02,F04S03,F04S04,F04S05,F04S06,F04S07,F04S08,F04S09,F04S10,F04S11,F04S12,F04S13,F04S14,F04S15,F04S16,F04S17,F04S18,F04S19,F04S20,F04S21,F04S22,F04S23,F04S24,F04S25,F04S26,F04S27,F04S28,F04S29,F04S30,F04S31,F04S32,F04S33,F04S34,F04S35,F04S36,F04S37,F04S38,F04S39,F04S40,F04S41,F04S42,F04S43,F04S44,F04S45,F04S46,F04S47,F04S48,F04S49,F04S50,F04S51,F04S52,F04S53,F04S54,F04S55,F05S01,F05S02,F05S03,F05S04,F05S05,F05S06,F05S07,F05S08,F05S09,F05S10,F05S11,F05S12,F05S13,F05S14,F05S15,F05S16,F05S17,F05S18,F05S19,F05S20,F05S21,F05S22,F05S23,F05S24,F05S25,F05S26,F05S27,F05S28,F05S29,F05S30,F05S31,F05S32,F05S33,F05S34,F05S35,F05S36,F05S37,F05S38,F05S39,F05S40,F05S41,F05S42,F05S43,F05S44,F05S45,F05S46,F05S47,F05S48,F05S49,F05S50,F05S51,F05S52,F05S53,F05S54,F05S55
P01,23.575188830395973,20.75226977950713,22.507057297627224,24.986648355840394,24.29999237048905,16.327153429465174,18.73044937819486,19.18822003509575,17.62417029068437,17.70046540016785,14.83939879453727,19.264515144579235,21.553368429083697,20.37079423208972,20.485236896314944,22.163729304951552,22.888532845044637,25.024795910582135,20.523384451056693,19.722285801480126,23.537041275654232,21.133745326924547,23.0411230640116,17.586022735942628,19.989318684672313,22.888532845044633,22.964827954528115,21.515220874341956,20.828564888990616,20.37079423208972,22.04928664072633,20.752269779507134,20.675974670023656,20.9048599984741,24.490730144197755,24.91035324635691,19.150072480354012,19.22636758983749,21.59151598382544,18.921187151903563,21.820401312275884,20.943007553215843,27.618829633020525,21.362630655374993,20.37079423208972,17.166399633783477,15.030136568245975,21.057450217441062,15.602349889372093,17.01380941481651,22.201876859693293,19.340810254062717,24.26184481574731,23.346303501945524,14.648661020828566,15.945677882047761,15.411612115663388,19.83672846570535,16.25085831998169,15.716792553597315,18.959334706645304,18.616006713969636,15.259021896696423,20.29449912260624,22.12558175020981,16.594186312657357,19.684138246738385,18.997482261387045,24.681467917906463,15.716792553597312,19.188220035095753,20.294499122606243,20.447089341573207,12.893873502708477,17.31898985275044,14.419775692378119,22.01113908598459,20.752269779507134,18.15823605706874,18.654154268711377,24.376287479972532,16.32715342946517,19.4171053635462,15.831235217822538,20.065613794155794,14.80125123979553,19.07377737087053,20.485236896314948,20.752269779507134,16.861219195849547,19.302662699320972,17.929350728618296,18.234531166552223,20.370794232089725,17.204547188525215,17.62417029068437,15.869382772564279,18.7685969329366,20.447089341573204,17.70046540016785,17.01380941481651,16.97566186007477,20.904859998474098,15.716792553597315,19.83672846570535,19.607843137254903,14.343480582894635,13.618677042801558,13.04646372167544,14.190890363927673,41.6189822232395,19.83672846570535,20.523384451056685,24.83405813687343,11.100938429846646,20.98115510795758,17.624170290684365,27.161058976119634,31.738765545128558,30.823224231326776,17.776760509651332,15.640497444113832,30.59433890287633,24.109254596780346,18.31082627603571,15.640497444113834,26.474402990768294,20.294499122606243,18.234531166552223,17.73861295490959,20.98115510795758,25.1773861295491,20.59967956054017,22.888532845044633,16.861219195849547,22.08743419546807,21.820401312275884,13.04646372167544,16.55603875791562,17.471580071717405,14.190890363927672,16.784924086366065,18.348973830777446,13.122758831158922,24.414435034714277,10.910200656137942,21.66781109330892,21.515220874341956,12.28351262684062,18.387121385519183,16.6323338673991,14.114595254444191,17.62417029068437,17.70046540016785,15.640497444113832,15.793087663080797,15.678644998855571,12.817578393224995,18.04379339284352,11.596856641489282,14.41977569237812,17.77676050965134,13.847562371252003,15.106431677729457,15.18272678721294,22.50705729762722,20.447089341573207,19.684138246738385,23.727779049362937,21.477073319600215,22.812237735561155,20.56153200579843,17.66231784542611,24.26184481574731,20.67597467002365,16.861219195849547,21.744106202792402,22.735942626077673,20.447089341573204,21.896696421759366,22.201876859693293,19.03562981612879,18.69230182345312,23.07927061875334,18.692301823453118,16.021972991531243,21.057450217441062,16.93751430533303,17.547875181200887,15.564202334630352,14.4960708018616,12.092774853131914,12.054627298390173,20.370794232089725,31.738765545128558,17.547875181200887,23.727779049362937,18.120088502327,18.539711604486154,19.150072480354012,14.877546349279012,21.21004043640803,19.645990691996644,17.471580071717405,13.046463721675439,17.776760509651332,15.297169451438164,17.39528496223392,17.39528496223392,20.29449912260624,19.83672846570535,19.53154802777142,18.959334706645304,18.120088502327,20.752269779507138,17.4715800717174,16.93751430533303,20.75226977950713,18.959334706645304,19.15007248035401,24.490730144197755,20.447089341573207,21.66781109330892,17.01380941481651,18.84489204242008,24.032959487296864,22.583352407110706,19.226367589837494,24.795910582131686,21.858548867017625,21.934843976501107,18.310826276035705,24.185549706263828,13.73311970702678,18.921187151903567,19.531548027771414,21.667811093308924,20.523384451056685,19.15007248035401,15.869382772564279,22.201876859693296,23.42259861142901,27.313649195086594,15.793087663080795,24.109254596780346,14.11459525444419,21.43892576485847,18.921187151903563,16.250858319981692,22.812237735561155,20.065613794155794,29.86953536278325,18.921187151903567,27.46623941405356,23.19371328297856,23.460746166170754,21.97299153124285,20.065613794155794,23.041123064011597,22.125581750209818,20.59967956054017,23.689631494621196,18.005645838101785,23.19371328297856,24.032959487296864,18.158236057068745,17.395284962233923,15.640497444113832,22.583352407110706,18.921187151903567,18.997482261387045,26.51255054551003,15.945677882047763,13.88570992599374,12.130922407873657
P02,12.28351262684062,11.978332188906691,10.2235446707866,9.613183794918749,10.910200656137942,10.528725108720534,10.528725108720533,8.468757152666516,12.588693064774546,11.367971313038836,8.163576714732587,13.313496604867627,11.825741969939727,11.062790875104907,11.94018463416495,9.918364232852674,13.504234378576333,11.444266422522318,13.542381933318076,12.512397955291066,10.261692225528343,9.422446021210042,11.13908598458839,12.130922407873655,9.880216678110937,11.596856641489282,9.460593575951783,14.34348058289464,14.457923247119862,11.17723353933013,12.207217517357137,15.335317006179904,17.128252079041737,9.76577401388571,10.605020218204015,11.5205615320058,10.986495765621424,9.308003356984818,11.062790875104907,10.452429999237047,14.496070801861602,13.275349050125888,19.989318684672313,9.308003356984816,14.41977569237812,11.062790875104907,13.656824597543299,12.207217517357137,11.863889524681468,10.757610437170978,13.313496604867629,12.893873502708477,9.842069123369193,7.095445181963836,10.147249561303122,24.5288776989395,20.523384451056685,20.828564888990616,21.362630655374993,26.626993209735254,21.28633554589151,24.948500801098646,30.899519340810258,28.725108720531015,25.864042114900435,30.97581445029374,21.59151598382544,28.03845273517968,23.15556572823682,23.27000839246205,22.04928664072633,28.686961165789274,23.46074616617075,20.675974670023653,21.51522087434196,25.024795910582135,17.586022735942628,26.05477988860914,28.53437094682231,23.49889372091249,23.346303501945528,23.231860837720305,24.757763027389945,27.924010070954452,21.21004043640803,24.719615472648204,19.45525291828794,25.482566567483026,28.915846494239716,25.02479591058213,21.972991531242847,29.335469596398873,25.711451895933475,20.141908903639276,20.752269779507134,22.201876859693293,21.97299153124285,26.932173647669188,22.850385290302892,28.763256275272752,24.872205691615164,33.30281528953994,18.921187151903567,24.91035324635691,27.00846875715267,22.888532845044633,29.22102693217365,25.101091020065617,21.62966353856718,23.231860837720305,45.96780346379797,38.1857022964828,61.264972915236136,38.719768062867175,43.640802624551775,25.406271457999544,22.04928664072633,21.438925764858475,26.77958342870222,36.31647211413748,30.632486457618068,34.63797970550088,27.237354085603116,22.392614633402,23.613336385137714,22.583352407110706,22.278171969176775,25.329976348516063,27.962157625696193,31.81506065461204,27.275501640344853,28.686961165789274,25.86404211490044,23.079270618753338,32.34912642099642,34.370946822308696,33.760585946440834,41.50453955901427,24.79591058213169,25.558861676966508,25.90218966964217,48.18036163881895,38.757915617608916,23.575188830395973,25.1773861295491,26.0166323338674,22.507057297627224,28.152895399404905,27.847714961470974,24.18554970626383,26.55069810025178,24.147402151522087,22.926680399786374,19.607843137254903,23.727779049362937,30.36545357442588,23.765926604104678,19.53154802777142,20.447089341573207,24.49073014419776,21.095597772182806,23.651483939879455,23.346303501945528,29.67879758907454,22.12558175020981,20.33264667734798,16.21271076523995,15.945677882047763,15.48790722514687,18.310826276035705,19.302662699320972,18.501564049744413,19.226367589837494,21.66781109330892,22.240024414435034,17.776760509651332,18.120088502327,16.746776531624324,16.021972991531246,24.032959487296864,21.057450217441065,20.218204013122758,17.166399633783474,20.752269779507134,16.403448538948656,18.616006713969636,23.8803692683299,26.35996032654307,19.607843137254903,20.218204013122758,20.98115510795758,17.929350728618296,26.131074998092622,21.362630655374993,18.158236057068745,19.91302357518883,16.250858319981692,20.75226977950713,17.242694743266956,16.55603875791562,14.80125123979553,21.438925764858475,23.270008392462046,15.335317006179906,18.158236057068745,20.29449912260624,19.684138246738385,18.84489204242008,12.512397955291066,15.411612115663386,15.487907225146868,13.427939269092851,18.234531166552223,20.10376134889754,18.99748226138705,14.87754634927901,16.36530098420691,14.648661020828566,16.479743648432137,16.823071641107806,20.59967956054017,17.62417029068437,17.66231784542611,24.872205691615168,24.338139925230795,21.70595864805066,20.675974670023653,22.04928664072633,23.308155947203783,20.98115510795758,20.904859998474098,20.981155107957584,25.482566567483026,22.392614633401998,21.97299153124285,19.302662699320976,22.888532845044633,24.338139925230795,22.735942626077673,18.463416495002672,19.83672846570535,20.52338445105669,19.87487602044709,18.99748226138705,18.272678721293964,19.91302357518883,17.01380941481651,21.28633554589151,26.512550545510038,20.790417334248875,19.760433356221867,21.21004043640803,21.477073319600215,28.915846494239723,23.346303501945528,20.29449912260624,20.714122224765394,20.752269779507134,22.201876859693296,18.616006713969636,18.310826276035705,19.150072480354012,23.11741817349508,16.937514305333032,26.09292744335088,18.005645838101778,14.953841458762493,13.771267261768521,18.08194094758526,19.87487602044709,19.4171053635462,18.15823605706874,23.155565728236823,19.836728465705352,18.616006713969636
P03,9.460593575951783,15.411612115663386,11.406118867780576,11.21538109407187,12.130922407873655,13.885709925993742,10.376134889753569,9.536888685435263,19.378957808804454,14.648661020828566,10.986495765621424,10.757610437170978,16.784924086366065,11.024643320363165,10.223544670786604,13.427939269092853,12.97016861219196,11.215381094071871,10.757610437170978,14.229037918669416,10.605020218204015,10.681315327687496,12.664988174258028,12.169069962615396,8.850232700083925,9.07911802853437,14.724956130312052,11.673151750972764,10.910200656137942,16.861219195849547,14.038300144960706,10.83390554665446,8.468757152666516,11.291676203555355,10.83390554665446,10.18539711604486,15.259021896696423,15.48790722514687,10.757610437170978,9.76577401388571,14.915693904020753,9.460593575951782,10.223544670786602,13.809414816510262,12.512397955291068,8.850232700083925,9.07911802853437,12.893873502708477,10.757610437170978,10.49057755397879,12.664988174258031,15.94567788204776,12.58869306477455,8.62134737163348,11.10093842984665,13.885709925993744,16.250858319981692,14.724956130312046,14.953841458762493,13.046463721675442,12.169069962615396,19.22636758983749,18.08194094758526,15.335317006179904,13.580529488059817,18.15823605706874,17.242694743266956,14.724956130312048,18.539711604486154,14.80125123979553,17.4715800717174,12.741283283741511,16.861219195849547,13.962005035477226,14.496070801861602,14.724956130312048,15.335317006179906,18.921187151903563,15.869382772564279,14.038300144960708,14.724956130312048,17.318989852750438,12.436102845807582,20.52338445105669,13.962005035477228,15.335317006179906,13.80941481651026,17.395284962233923,16.6323338673991,12.512397955291066,13.962005035477228,15.945677882047763,16.403448538948656,16.403448538948656,15.18272678721294,15.373464560921647,13.962005035477224,10.910200656137942,14.572365911345084,13.0083161669337,15.18272678721294,14.953841458762492,15.297169451438164,16.403448538948656,14.572365911345083,12.436102845807584,17.547875181200887,14.915693904020753,14.267185473411155,18.120088502327,15.869382772564277,15.716792553597315,19.645990691996644,16.25085831998169,17.471580071717405,13.580529488059817,18.616006713969636,18.46341649500267,15.25902189669642,13.694972152285036,20.790417334248875,20.141908903639276,15.25902189669642,17.73861295490959,15.25902189669642,15.182726787212939,13.73311970702678,13.80941481651026,18.38712138551919,16.823071641107806,16.479743648432134,13.885709925993744,19.4171053635462,15.90753032730602,17.24269474326696,16.93751430533303,19.989318684672313,20.59967956054017,14.572365911345084,16.78492408636607,17.85305561913481,21.21004043640803,20.065613794155794,15.182726787212939,15.259021896696424,15.297169451438165,12.130922407873657,15.983825436789502,17.547875181200887,16.098268101014725,17.929350728618296,13.35164415960937,18.53971160448615,14.572365911345083,14.038300144960717,17.395284962233923,19.073777370870534,16.78492408636606,22.697795071335932,24.605172808422978,19.378957808804458,23.918516823071638,18.04379339284352,16.25085831998169,14.267185473411157,12.932021057450218,16.365300984206915,8.087281605249103,17.73861295490959,11.5205615320058,8.926527809567407,17.31898985275044,10.376134889753567,8.239871824216069,13.580529488059817,18.616006713969636,18.38712138551919,10.681315327687496,17.05195696955825,11.367971313038836,16.784924086366065,23.041123064011597,9.918364232852676,17.96749828336004,8.88838025482567,9.994659342336158,8.926527809567407,12.20721751735714,9.689478904402227,11.291676203555353,8.773937590600443,10.605020218204015,11.90203707942321,11.673151750972762,7.705806057831701,6.637674525062941,8.239871824216063,8.316166933699552,8.850232700083927,9.918364232852674,39.597161821927216,15.793087663080797,10.643167772945754,13.351644159609364,16.403448538948652,14.267185473411153,18.387121385519183,16.479743648432134,16.28900587472343,10.223544670786602,12.550545510032808,14.648661020828564,16.403448538948652,16.403448538948656,12.130922407873657,12.054627298390173,15.259021896696417,15.030136568245986,8.506904707408253,9.460593575951782,20.14190890363928,17.547875181200887,19.607843137254903,14.953841458762493,10.376134889753567,16.556038757915616,15.754940108339056,15.449759670405129,21.324483100633252,19.150072480354012,12.588693064774546,14.953841458762493,15.7930876630808,21.744106202792402,14.80125123979553,17.05195696955825,13.199053940642406,16.28900587472343,16.6323338673991,12.016479743648432,14.877546349279012,13.38979171435111,14.648661020828566,18.15823605706874,18.234531166552227,15.945677882047763,16.098268101014725,12.817578393224995,14.190890363927673,18.844892042420078,16.479743648432134,12.741283283741513,15.640497444113834,17.62417029068437,12.817578393224995,15.373464560921645,15.869382772564279,17.01380941481651,13.580529488059815,18.616006713969636,25.71145189593347,21.820401312275887,14.877546349279015,15.793087663080797,17.62417029068437,14.267185473411157,16.556038757915616,16.098268101014725,19.913023575188834,16.78492408636607,18.31082627603571,14.572365911345083,10.605020218204015,13.656824597543297,17.547875181200887
P04,6.790264744029908,9.49874113069352,11.444266422522317,8.583199816891739,9.3842984664683,9.3842984664683,9.231708247501334,9.308003356984818,10.833905546654456,9.575036240177004,9.651331349660486,7.782101167315175,10.147249561303122,9.994659342336156,11.673151750972762,11.139085984588387,9.155413138017854,9.99465934233616,8.773937590600443,7.858396276798659,9.231708247501336,10.91020065613794,9.613183794918745,11.139085984588391,9.613183794918747,7.019150072480354,9.3842984664683,9.76577401388571,8.201724269474328,12.28351262684062,9.536888685435265,8.773937590600443,9.613183794918747,10.223544670786604,10.45242999923705,9.460593575951783,9.308003356984818,9.460593575951782,11.711299305714503,12.893873502708477,19.989318684672313,12.512397955291068,15.640497444113832,9.308003356984818,9.994659342336156,8.163576714732585,10.52872510872053,8.850232700083925,7.858396276798658,10.299839780270085,11.596856641489282,8.697642481116961,7.858396276798657,7.095445181963837,5.188067444876783,10.986495765621424,11.673151750972764,11.100938429846646,12.474250400549325,10.681315327687495,11.825741969939727,11.90203707942321,12.130922407873655,14.343480582894637,13.656824597543299,10.986495765621425,11.291676203555353,14.229037918669416,12.58869306477455,10.681315327687496,11.825741969939731,14.877546349279012,15.182726787212939,11.978332188906691,13.885709925993746,10.032806897077897,11.215381094071871,13.04646372167544,13.656824597543299,12.855725947966736,11.787594415197985,12.436102845807584,12.24536507209888,11.062790875104906,9.613183794918747,9.193560692759593,13.199053940642404,12.588693064774548,11.673151750972764,13.580529488059817,13.237201495384147,13.962005035477226,16.55603875791562,14.114595254444191,10.83390554665446,11.902037079423211,13.351644159609371,13.199053940642404,10.910200656137942,12.359807736324102,12.703135728999772,13.04646372167544,13.160906385900667,12.283512626840619,14.877546349279013,14.267185473411157,15.18272678721294,12.664988174258031,8.621347371633478,7.629510948348211,9.76577401388571,11.215381094071873,9.002822919050892,9.002822919050889,8.697642481116958,9.613183794918747,9.76577401388571,10.376134889753569,10.337987335011825,11.711299305714508,10.223544670786602,12.58869306477455,10.376134889753565,11.062790875104909,10.91020065613794,10.337987335011826,9.231708247501333,8.926527809567407,11.444266422522317,11.863889524681468,9.07911802853437,8.773937590600443,11.596856641489282,12.359807736324102,13.962005035477228,13.313496604867627,13.580529488059819,12.054627298390173,11.367971313038831,11.062790875104906,12.51239795529107,14.648661020828566,9.117265583276112,11.902037079423211,8.62134737163348,8.888380254825666,10.91020065613794,10.376134889753567,14.724956130312048,10.605020218204013,7.095445181963836,10.109102006561379,10.83390554665446,12.207217517357138,8.773937590600445,11.673151750972762,9.918364232852674,10.986495765621427,12.130922407873653,12.474250400549325,12.893873502708477,11.978332188906691,11.596856641489282,10.910200656137942,10.605020218204015,16.021972991531243,22.087434195468074,23.041123064011597,20.103761348897535,23.651483939879455,18.15823605706874,24.872205691615168,23.6896314946212,22.049286640726333,23.002975509269856,20.447089341573207,18.196383611810482,15.945677882047761,15.52605477988861,18.08194094758526,20.94300755321584,25.062943465323873,23.575188830395973,23.727779049362937,21.133745326924547,21.133745326924547,23.80407415884642,30.098420691233695,21.972991531242847,21.095597772182806,16.55603875791562,14.34348058289464,6.790264744029912,4.119935912108037,7.629510948348214,7.438773174639506,10.299839780270087,4.043640802624552,6.866559853513391,6.256198977645534,5.41695277332723,4.692149233234151,12.512397955291068,13.199053940642406,14.724956130312052,17.70046540016785,18.57785915922789,33.798733501182575,20.29449912260624,30.09842069123369,28.76325627527276,33.30281528953994,27.77141985198749,23.727779049362937,26.894026092927444,25.940337224383917,31.509880216678113,35.70611123826963,34.599832150759134,27.08476386663615,26.245517662317848,18.04379339284352,21.438925764858475,18.577859159227895,26.817730983443962,20.523384451056685,20.332646677347984,25.02479591058213,25.02479591058213,35.43907835507744,21.934843976501107,26.62699320973525,37.1557183184558,25.482566567483026,26.779583428702225,23.651483939879455,27.618829633020525,34.90501258869307,29.297322041657132,24.872205691615168,19.760433356221867,20.59967956054017,34.90501258869307,18.692301823453118,18.04379339284352,19.989318684672316,17.70046540016785,20.828564888990616,19.073777370870527,19.95117112993057,17.395284962233923,22.01113908598459,19.150072480354012,16.25085831998169,15.259021896696423,15.335317006179904,18.005645838101778,16.556038757915616,16.021972991531243,18.234531166552223,19.83672846570535,19.26451514457923,14.877546349279013,13.46608682383459,16.212710765239947,16.403448538948656,18.997482261387045,14.953841458762493,15.335317006179906,24.109254596780353,17.31898985275044,32.883192187380786,15.869382772564279,12.893873502708479,20.0656137941558
P05,23.65148393987947,27.38994430457008,128.97688258182654,26.283665217059593,18.08194094758528,14.724956130312037,22.621499961852436,13.80941481651027,20.48523689631495,14.610513466086822,16.556038757915616,14.26718547341116,19.302662699320976,22.201876859693293,16.86121919584955,15.335317006179906,14.190890363927672,14.64866102082857,17.357137407492186,18.53971160448615,19.607843137254903,14.648661020828566,17.586022735942628,14.11459525444419,20.332646677347984,15.869382772564279,17.090104524299992,14.496070801861602,14.877546349279008,25.864042114900435,19.87487602044709,16.479743648432134,14.877546349279008,15.90753032730602,20.828564888990613,16.174563210498206,10.070954451819638,14.343480582894635,17.70046540016785,20.0656137941558,18.844892042420078,15.259021896696424,13.923857480735485,17.09010452429998,21.438925764858475,18.768596932936596,12.89387350270848,13.656824597543299,24.948500801098646,21.896696421759373,19.607843137254903,14.41977569237811,17.62417029068437,17.891203173876562,25.78774700541696,28.839551384756238,23.80407415884642,21.210040436408025,22.27817196917677,19.45525291828794,21.70595864805066,25.520714122224767,19.684138246738385,24.26184481574731,23.117418173495082,23.575188830395973,20.675974670023653,19.760433356221867,21.477073319600215,17.357137407492182,21.438925764858475,18.539711604486154,27.618829633020525,24.03295948729687,27.313649195086597,23.42259861142901,21.362630655374993,19.760433356221863,22.35446707866026,24.299992370489054,18.654154268711377,24.147402151522087,22.659647516594184,21.744106202792402,25.67330434119173,19.989318684672313,28.915846494239723,31.662470435645076,34.5616845960174,19.989318684672313,20.447089341573204,23.0411230640116,20.447089341573204,21.286335545891507,19.226367589837494,34.10391393911651,29.488059815365837,20.447089341573207,26.77958342870222,23.575188830395973,24.948500801098653,28.686961165789274,27.80956740672923,28.763256275272767,23.8803692683299,25.1773861295491,24.490730144197755,21.32448310063325,22.507057297627224,24.681467917906467,34.714274814984364,81.33058670939194,121.53810940718702,96.24628061341267,106.05020218204012,43.259327077134344,48.82887006942855,134.8134584573129,36.24017700465401,15.869382772564279,49.28664072632944,19.684138246738385,23.34630350194552,18.61600671396964,37.23201342793927,18.654154268711377,26.474402990768294,30.670634012359805,13.733119707026773,41.42824444953079,20.065613794155794,10.910200656137942,23.0411230640116,29.29732204165714,23.346303501945528,38.52903028915847,40.436408026245516,43.945983062485695,14.038300144960715,14.038300144960708,12.359807736324102,19.91302357518883,23.57518883039597,44.86152437628748,42.49637598229954,44.02227817196918,66.07156481269551,9.803921568627459,15.144579232471198,14.152742809185932,55.61913481345846,18.15823605706874,56.420233463035025,27.61882963302053,29.602502479591056,8.964675364309151,24.032959487296864,30.136568245975436,23.2318608377203,21.744106202792402,52.0332646677348,44.28931105516138,14.877546349279012,34.10391393911651,12.893873502708479,27.504386968795302,18.50156404974441,24.83405813687343,33.87502861066606,26.169222552834363,22.735942626077666,34.98130769817655,25.86404211490044,25.71145189593348,17.395284962233923,14.801251239795532,25.558861676966508,38.681620508125434,19.340810254062717,28.30548561837186,26.09292744335088,23.651483939879455,27.733272297245747,33.836881055924316,26.77958342870222,25.59700923170825,30.212863355458918,29.373617151140614,23.308155947203787,29.98397802700847,23.537041275654232,19.07377737087053,22.964827954528115,24.528877698939496,28.458075837338832,24.986648355840394,22.430762188143742,29.297322041657132,20.71412222476539,25.71145189593347,25.21553368429084,24.49073014419776,32.578011749446866,20.675974670023656,25.101091020065617,25.32997634851606,24.414435034714277,28.53437094682231,26.09292744335088,20.67597467002365,25.406271457999544,29.526207370107578,23.498893720912495,23.460746166170747,25.558861676966508,27.924010070954452,22.77409018081941,26.74143587396048,22.201876859693293,26.970321202410926,15.640497444113834,17.2808422980087,13.73311970702678,13.809414816510262,18.806744487678344,19.91302357518883,13.656824597543299,11.596856641489282,15.48790722514687,16.708628976882586,19.45525291828794,22.27817196917678,19.569695582513162,16.021972991531243,21.858548867017625,18.99748226138705,18.921187151903563,15.106431677729457,16.479743648432137,21.133745326924547,16.32715342946517,35.553521019302664,23.49889372091249,22.201876859693296,21.477073319600215,15.716792553597315,18.348973830777453,16.55603875791562,15.716792553597315,16.708628976882583,16.32715342946517,16.250858319981692,16.403448538948652,17.090104524299996,18.7685969329366,15.983825436789502,15.945677882047761,21.210040436408025,11.90203707942321,19.760433356221867,17.967498283360037,20.52338445105669,19.378957808804458,21.133745326924544,21.362630655374993,16.174563210498206,20.065613794155794,15.106431677729457,19.569695582513162,21.59151598382544,18.15823605706874,20.752269779507134,17.62417029068437,13.275349050125888,25.482566567483026
P06,13.656824597543299,12.512397955291066,13.160906385900663,13.923857480735485,16.784924086366065,13.656824597543299,17.395284962233923,15.831235217822538,16.17456321049821,15.182726787212939,13.504234378576335,12.817578393224998,14.152742809185934,17.929350728618296,15.564202334630352,21.66781109330892,8.392462043183032,9.842069123369193,7.400625619897768,11.825741969939727,13.0083161669337,14.229037918669414,13.199053940642406,5.874723430228123,4.959182116426337,6.86655985351339,9.193560692759595,12.70313572899977,14.229037918669416,12.893873502708477,17.66231784542611,13.962005035477226,14.991989013504234,9.76577401388571,10.79575799191272,14.000152590218967,16.403448538948652,15.373464560921645,12.207217517357138,13.122758831158924,9.842069123369193,18.310826276035705,11.978332188906691,13.122758831158924,15.449759670405127,12.207217517357138,14.953841458762493,17.853055619134814,16.289005874723433,15.411612115663388,14.877546349279012,14.305333028152896,11.978332188906691,15.106431677729457,12.20721751735714,7.782101167315176,6.86655985351339,4.65400167849241,5.798428320744639,5.188067444876783,6.7902647440299075,5.569542992294194,4.730296787975891,5.722133211261159,5.264362554360266,6.103608758678568,5.188067444876784,6.179903868162051,4.272526131074999,6.179903868162051,4.119935912108037,5.874723430228123,5.264362554360265,5.264362554360263,6.637674525062943,5.5313954375524546,5.2643625543602655,5.836575875486383,7.476920729381247,4.654001678492409,4.577706569008927,4.1199359121080334,5.340657663843746,4.959182116426336,7.324330510414283,5.2643625543602655,12.66498817425803,5.569542992294194,5.645838101777676,6.637674525062943,4.806591897459371,8.087281605249105,6.179903868162048,5.340657663843749,12.817578393224997,5.569542992294195,8.087281605249103,9.842069123369193,7.934691386282139,5.5695429922941955,5.41695277332723,5.264362554360263,9.536888685435265,5.111772335393301,8.62134737163348,11.25352864881361,6.065461203936827,5.874723430228123,5.874723430228122,7.2480354009308,4.8828870069428545,5.2643625543602655,6.713969634546427,6.86655985351339,7.782101167315174,6.179903868162051,6.103608758678569,5.722133211261159,6.332494087129016,4.959182116426338,5.111772335393303,4.959182116426337,4.882887006942855,6.103608758678569,4.654001678492406,4.4251163500419635,5.149919890135042,4.654001678492408,5.874723430228123,5.1880674448767845,5.264362554360266,4.654001678492408,4.959182116426336,5.6076905470359355,4.959182116426337,4.8065918974593735,5.1880674448767845,4.959182116426336,4.272526131074998,4.5014114595254435,4.806591897459373,4.8828870069428545,5.264362554360266,5.035477225909819,5.645838101777676,4.882887006942855,5.416952773327229,5.2643625543602655,5.79842832074464,4.730296787975892,6.561379415579461,5.722133211261159,6.179903868162052,5.607690547035935,4.425116350041963,4.577706569008926,4.730296787975892,4.577706569008926,4.654001678492408,4.73029678797589,4.577706569008926,5.226214999618524,4.577706569008926,4.501411459525444,4.654001678492409,31.05210955977722,24.032959487296864,26.0166323338674,31.166552224002448,20.065613794155794,25.864042114900435,30.136568245975436,23.07927061875334,21.66781109330892,18.234531166552227,23.727779049362937,26.894026092927447,27.237354085603116,30.4798962386511,22.545204852368965,24.643320363164722,25.482566567483026,31.891355764095522,26.05477988860914,20.447089341573207,29.602502479591063,25.787747005416954,29.56435492484932,45.357442587930116,26.77958342870222,26.245517662317845,26.09292744335088,22.774090180819407,26.092927443350884,26.855878538185703,22.125581750209815,25.71145189593347,33.03578240634775,27.962157625696193,25.444419012741285,21.40077821011673,26.359960326543067,25.329976348516063,24.795910582131686,23.727779049362937,29.983978027008472,25.482566567483026,21.362630655374993,37.537193865873206,27.618829633020525,26.55069810025178,26.245517662317848,30.365453574425878,19.645990691996644,21.591515983825435,25.21553368429084,28.9921416037232,22.735942626077676,26.398107881284815,22.96482795452812,12.130922407873655,15.716792553597315,23.19371328297856,17.624170290684372,23.80407415884642,17.24269474326696,22.812237735561155,18.34897383077745,21.59151598382544,12.70313572899977,17.62417029068437,27.46623941405356,18.768596932936607,15.945677882047763,13.809414816510262,14.496070801861602,11.673151750972762,21.896696421759366,10.83390554665446,10.910200656137942,16.55603875791562,16.021972991531243,17.051956969558255,13.275349050125886,14.343480582894639,22.049286640726333,12.28351262684062,13.427939269092851,11.749446860456246,14.80125123979553,14.190890363927672,14.190890363927672,18.616006713969636,19.607843137254903,16.632333867399097,17.35713740749218,13.656824597543299,11.215381094071871,15.48790722514687,18.31082627603571,14.038300144960708,22.774090180819414,19.302662699320972,15.678644998855574,15.144579232471202,30.70878156710155,19.302662699320976,15.640497444113834,16.899366750591284,21.24818799114977,27.771419851987492,16.70862897688258,40.9704737926299,13.656824597543306,27.46623941405356
P07,17.05195696955825,16.17456321049821,22.201876859693293,19.45525291828794,21.210040436408025,20.904859998474098,21.362630655374993,20.180056458381017,18.616006713969636,22.01113908598459,21.972991531242847,21.62966353856718,22.468909742885483,26.05477988860914,23.346303501945524,23.537041275654232,20.9048599984741,31.81506065461204,26.74143587396048,23.765926604104678,23.80407415884642,18.616006713969632,22.01113908598459,21.28633554589151,22.163729304951556,16.479743648432137,19.53154802777142,20.714122224765394,18.921187151903563,15.945677882047761,17.471580071717405,17.66231784542611,19.760433356221867,17.62417029068437,17.853055619134814,21.019302662699324,19.91302357518883,18.844892042420085,21.21004043640803,19.378957808804454,25.024795910582135,21.972991531242847,26.855878538185703,22.04928664072633,21.171892881666285,24.261844815747313,26.32181277180133,24.37628747997254,24.185549706263828,24.414435034714273,24.834058136873427,20.180056458381017,23.80407415884642,23.8803692683299,23.42259861142901,24.64332036316472,26.321812771801326,38.56717784390021,23.575188830395973,23.651483939879455,26.474402990768294,28.915846494239723,23.46074616617075,20.37079423208972,19.226367589837494,30.823224231326776,26.245517662317845,61.608300907911804,29.67879758907454,18.654154268711377,20.59967956054017,15.869382772564279,23.11741817349508,18.234531166552227,24.147402151522087,24.567025253681248,19.150072480354012,31.280994888227667,22.08743419546807,22.430762188143742,25.787747005416954,26.62699320973526,22.04928664072633,18.921187151903563,21.362630655374993,17.70046540016785,25.940337224383917,18.08194094758526,13.42793926909285,12.58869306477455,20.63782711528191,22.468909742885486,13.73311970702678,16.861219195849547,14.877546349279012,21.477073319600212,22.35446707866026,7.324330510414285,35.36278324559396,22.430762188143742,45.62447547112231,11.55870908674754,6.637674525062944,18.501564049744417,20.828564888990627,23.231860837720305,25.74959945067521,25.25368123903258,17.090104524299996,20.752269779507134,29.60250247959106,30.02212558175022,30.136568245975432,32.50171663996338,35.47722590981919,24.490730144197762,28.801403830014497,41.80971999694819,58.02243076218814,53.06324864576182,43.86968795300222,62.79087510490578,49.286640726329445,27.695124742504007,26.703288319218743,31.81506065461204,42.34378576333258,28.915846494239723,31.967650873579004,43.068589303425654,27.733272297245747,33.79873350118258,34.79056992446784,31.662470435645076,28.229190508888383,31.204699778744185,23.956664377813382,27.542534523537046,26.05477988860914,22.888532845044637,18.463416495002672,30.975814450293736,20.218204013122758,28.53437094682231,27.313649195086597,24.757763027389945,25.1773861295491,34.180209048599984,34.599832150759134,26.855878538185706,25.864042114900435,32.15838864728771,32.6161593041886,24.719615472648204,31.662470435645076,29.373617151140614,38.10940718699931,30.899519340810258,24.032959487296864,27.77141985198749,30.36545357442588,30.21286335545892,35.01945525291829,26.703288319218743,25.97848477912566,20.59967956054017,27.46623941405356,27.084763866636152,37.766079194323645,24.567025253681237,20.33264667734798,21.286335545891507,30.55619134813459,17.01380941481651,20.180056458381017,21.057450217441065,34.67612726024262,36.77424277103838,30.518043793392845,31.891355764095522,46.42557412069886,20.256351567864503,18.539711604486154,36.049439230945296,22.12558175020981,41.92416266117342,33.64614328221561,18.387121385519187,24.91035324635691,24.681467917906463,44.480048828870075,31.35728999771115,27.428091859311817,22.354467078660257,21.362630655374993,42.11490043488212,62.40939955748837,44.21301594567788,23.575188830395973,23.765926604104678,39.520866712443734,24.75776302738995,28.839551384756245,16.97566186007477,20.98115510795758,26.817730983443962,33.60799572747387,55.466544594491495,52.10955977721829,50.202182040131234,43.18303196765088,79.95727473868926,58.36575875486382,53.71175707637141,22.468909742885486,24.605172808422985,37.804226749065386,47.074082551308464,58.74723430228123,45.16670481422141,19.760433356221867,22.621499961852443,14.877546349279013,15.25902189669642,13.351644159609371,19.722285801480126,22.54520485236896,17.776760509651332,15.335317006179906,16.6323338673991,18.196383611810486,22.73594262607767,20.637827115281908,21.820401312275884,22.583352407110706,18.539711604486154,16.67048142214084,18.463416495002672,18.997482261387045,15.411612115663385,19.87487602044709,14.38162813763638,20.59967956054017,17.853055619134814,24.56702525368124,16.403448538948656,19.87487602044709,13.962005035477226,14.953841458762493,18.387121385519194,18.310826276035705,14.877546349279012,15.411612115663386,15.793087663080797,16.784924086366065,16.6323338673991,11.520561532005798,16.327153429465174,17.547875181200887,12.436102845807582,10.528725108720533,10.185397116044863,15.869382772564279,14.343480582894637,12.970168612191959,12.512397955291068,16.479743648432137,10.681315327687496,15.564202334630352,13.962005035477226,16.25085831998169,14.877546349279013,12.817578393224995,14.763103685053789,15.259021896696424
P08,18.15823605706874,19.49340047302968,22.125581750209815,19.53154802777142,27.466239414053554,24.98664835584039,27.00846875715267,31.052109559777218,27.199206530861375,33.951323720149546,28.152895399404898,27.618829633020525,38.8342107270924,34.82871747920959,34.332799267566955,26.70328831921874,23.11741817349508,27.504386968795302,25.101091020065617,21.400778210116734,22.46890974288548,31.20469977874418,25.024795910582135,22.507057297627224,28.191042954146646,23.994811932555123,24.719615472648204,23.80407415884642,22.545204852368965,28.763256275272756,26.74143587396048,26.0166323338674,30.06027313649195,25.406271457999544,25.406271457999544,27.084763866636152,25.520714122224767,20.752269779507134,27.38994430457008,23.270008392462046,13.427939269092853,21.019302662699324,19.87487602044709,19.07377737087053,17.586022735942628,19.073777370870527,14.152742809185934,17.051956969558255,21.59151598382544,17.853055619134814,23.49889372091249,15.182726787212939,13.42793926909285,13.0083161669337,18.616006713969636,8.239871824216069,9.689478904402229,6.561379415579461,9.460593575951783,7.5532158388647295,11.444266422522318,12.817578393224995,7.782101167315176,8.773937590600443,10.910200656137942,10.528725108720533,14.343480582894639,14.4960708018616,11.55870908674754,11.291676203555353,11.215381094071871,11.520561532005798,8.392462043183032,13.122758831158922,11.444266422522318,13.0083161669337,11.978332188906691,14.419775692378119,13.160906385900663,11.062790875104906,11.444266422522317,13.73311970702678,13.618677042801558,11.367971313038835,7.019150072480354,8.583199816891739,8.621347371633478,10.872053101396201,9.842069123369193,12.054627298390173,12.28351262684062,11.749446860456246,14.343480582894639,10.223544670786604,16.93751430533303,10.528725108720531,12.054627298390173,13.504234378576333,11.749446860456246,14.343480582894637,11.13908598458839,11.749446860456246,14.457923247119862,12.817578393224995,12.130922407873657,12.512397955291068,15.793087663080797,12.512397955291066,10.910200656137942,10.910200656137942,29.335469596398866,33.18837262531472,37.384603646906235,39.21568627450981,39.559014267185475,40.24567025253681,41.657129777981226,41.54268711375602,28.1528953994049,24.49073014419776,34.180209048599984,35.82055390249485,33.11207751583124,37.95681696803235,37.9186694132906,44.785229266803995,32.92133974212253,35.93499656672007,32.57801174944687,36.545357442587935,52.376592660410466,30.060273136491954,23.117418173495082,36.240177004654,47.112230106050205,49.21034561684596,40.932326237888155,35.85870145723659,36.583504997329676,24.109254596780346,23.575188830395973,41.008621347371644,36.92683299000534,35.09575036240177,22.430762188143742,32.845044632639045,29.488059815365837,31.891355764095522,32.387273975738154,26.588845654993516,36.240177004654,30.55619134813459,35.62981612878615,39.33012893873503,32.88319218738079,25.444419012741285,38.147554741741054,22.812237735561155,29.60250247959106,39.29198138399329,33.22652018005646,38.757915617608916,27.313649195086597,42.49637598229953,26.550698100251775,28.763256275272756,28.152895399404898,23.49889372091249,18.196383611810482,22.27817196917678,21.400778210116734,17.853055619134814,21.438925764858475,28.038452735179675,26.207370107576104,29.106584267948424,30.670634012359812,25.291828793774318,23.193713282978564,26.169222552834363,15.945677882047761,21.59151598382544,26.39810788128481,23.84222171358816,21.362630655374993,16.823071641107806,24.45258258945602,10.83390554665446,16.403448538948652,16.708628976882583,25.63515678644999,21.59151598382544,28.45807583733882,22.69779507133593,20.82856488899062,21.438925764858475,23.00297550926986,24.872205691615168,22.659647516594188,26.855878538185706,22.507057297627224,11.863889524681468,24.29999237048905,26.550698100251775,23.994811932555123,16.861219195849547,26.47440299076829,23.346303501945524,24.452582589456018,23.689631494621196,27.656977187762266,19.150072480354012,22.73594262607767,24.07110704203861,34.180209048599984,30.51804379339285,26.131074998092622,35.591668574044405,32.57801174944686,29.869535362783246,10.223544670786602,11.978332188906691,6.332494087129016,10.528725108720531,9.00282291905089,8.545052262149998,5.722133211261158,7.629510948348211,8.010986495765621,6.48508430609598,12.741283283741513,12.054627298390173,10.452429999237049,9.308003356984818,10.070954451819638,7.782101167315176,6.561379415579461,13.580529488059813,10.986495765621424,5.41695277332723,7.095445181963836,14.496070801861602,10.948348210879683,10.910200656137942,13.73311970702678,22.278171969176775,13.580529488059817,15.259021896696424,14.57236591134508,16.25085831998169,15.678644998855573,29.14473182269017,12.817578393224995,16.327153429465174,11.825741969939726,13.733119707026782,27.88586251621271,18.348973830777446,10.376134889753569,20.828564888990616,18.38712138551919,12.359807736324102,16.784924086366065,19.226367589837494,16.6323338673991,17.853055619134814,18.463416495002672,16.556038757915623,16.36530098420691,15.220874341954683,16.479743648432134,14.572365911345083,12.436102845807584,15.716792553597315,18.50156404974441
P09,4.577706569008926,5.03547722590982,6.0273136491950865,4.043640802624552,4.196231021591516,5.874723430228123,8.621347371633478,5.340657663843751,4.119935912108034,5.722133211261159,5.6458381017776755,4.425116350041963,4.539559014267185,6.0273136491950865,5.874723430228123,3.128099488822767,3.7384603646906234,4.386968795300222,5.9510185397116055,6.446936751354239,5.722133211261158,4.692149233234151,4.272526131074999,3.051804379339285,6.0273136491950865,4.196231021591516,4.959182116426336,4.73029678797589,4.806591897459373,4.806591897459372,4.272526131074999,3.585870145723659,4.654001678492408,6.256198977645536,4.959182116426336,5.264362554360265,4.654001678492408,4.501411459525444,4.043640802624552,3.967345693141069,4.882887006942855,6.027313649195087,4.501411459525444,4.730296787975892,4.272526131074999,5.493247882810712,4.959182116426338,5.340657663843748,5.569542992294195,4.425116350041962,5.645838101777679,5.264362554360265,5.340657663843748,5.722133211261159,6.942854962996873,4.806591897459373,5.035477225909819,4.882887006942855,5.41695277332723,5.989166094453346,5.1117723353933044,5.111772335393301,6.218051422903793,6.10360875867857,6.637674525062943,6.485084306095979,6.0273136491950865,5.798428320744641,5.874723430228123,5.2643625543602655,4.196231021591515,3.891050583657588,4.501411459525444,6.179903868162052,5.798428320744641,4.959182116426337,4.8447394522011145,5.03547722590982,5.874723430228122,5.874723430228123,6.4087891966124975,6.637674525062943,6.485084306095979,4.005493247882811,5.03547722590982,7.705806057831692,6.942854962996872,3.5095750362401765,5.951018539711605,6.332494087129017,4.425116350041963,4.730296787975891,6.103608758678568,4.882887006942855,6.027313649195086,4.196231021591515,5.493247882810712,4.959182116426338,5.035477225909819,5.149919890135042,5.951018539711605,6.637674525062944,4.73029678797589,4.806591897459373,5.035477225909819,4.196231021591517,4.882887006942854,12.741283283741513,9.07911802853437,3.662165255207141,18.921187151903563,14.381628137636378,10.33798733501183,19.302662699320972,26.97032120241093,22.278171969176782,15.335317006179903,39.101243610284584,18.08194094758526,11.062790875104906,38.8342107270924,28.458075837338825,21.553368429083697,27.16105897611963,20.599679560540167,23.193713282978564,45.92965590905622,11.25352864881361,29.602502479591063,24.795910582131686,25.139238574807354,18.50156404974441,27.084763866636145,9.918364232852674,23.270008392462046,18.501564049744417,19.378957808804458,22.812237735561155,38.87235828183414,37.9949645227741,19.836728465705345,38.8342107270924,21.820401312275884,29.98397802700847,21.400778210116737,18.730449378194855,12.1690699626154,15.18272678721294,28.22919050888838,21.820401312275884,24.87220569161517,30.518043793392845,23.804074158846415,9.002822919050889,16.479743648432134,32.00579842832075,11.673151750972764,13.73311970702678,31.967650873579004,12.1690699626154,30.823224231326776,15.564202334630348,15.869382772564279,21.362630655375,30.97581445029374,47.531853208209355,47.53185320820936,31.662470435645076,17.547875181200887,12.054627298390173,7.5532158388647295,18.616006713969636,18.921187151903563,10.299839780270085,10.14724956130312,56.03875791561761,39.86419470511941,57.29762722209507,24.10925459678036,65.91897459372855,12.436102845807586,12.512397955291064,14.419775692378124,9.231708247501334,8.850232700083929,22.888532845044633,12.51239795529107,17.967498283360037,14.953841458762493,8.850232700083925,12.741283283741513,12.169069962615398,9.269855802243077,9.613183794918745,9.155413138017854,12.3598077363241,18.463416495002672,9.76577401388571,13.313496604867627,17.395284962233923,17.967498283360037,38.45273517967499,39.29198138399328,19.34081025406271,19.95117112993057,11.978332188906691,6.17990386816205,8.773937590600443,13.733119707026779,8.850232700083925,9.422446021210042,6.485084306095979,11.978332188906693,12.321660181582363,9.308003356984818,11.673151750972764,16.708628976882583,17.31898985275044,9.765774013885707,12.741283283741513,10.83390554665446,10.45242999923705,9.07911802853437,10.83390554665446,7.782101167315175,9.07911802853437,10.223544670786604,8.850232700083927,11.520561532005798,8.239871824216067,10.070954451819642,11.291676203555353,12.588693064774546,11.749446860456246,8.392462043183032,7.9346913862821395,14.000152590218969,10.75761043717098,8.125429159990844,10.299839780270085,11.291676203555353,10.070954451819638,9.460593575951782,9.689478904402229,8.392462043183032,8.62134737163348,9.994659342336156,9.918364232852674,8.125429159990844,10.109102006561379,8.239871824216067,8.850232700083925,7.858396276798658,10.681315327687496,9.689478904402229,10.872053101396201,10.452429999237049,10.681315327687496,8.697642481116961,6.637674525062945,8.850232700083925,8.773937590600443,10.299839780270084,6.790264744029907,11.711299305714505,9.231708247501334,11.291676203555353,8.278019378957808,8.468757152666514,7.286182955672542,8.468757152666514,8.010986495765621,13.885709925993744,8.010986495765623,5.149919890135038
P10,4.577706569008926,6.713969634546425,6.103608758678568,6.332494087129016,6.332494087129016,6.866559853513389,6.981002517738613,8.31616693369955,9.651331349660488,11.520561532005798,10.032806897077897,11.5205615320058,9.842069123369193,5.951018539711605,10.528725108720533,10.452429999237049,12.207217517357138,10.83390554665446,11.673151750972764,12.436102845807586,11.635004196231023,11.673151750972764,12.130922407873657,11.215381094071871,11.13908598458839,8.926527809567407,10.299839780270084,11.100938429846648,11.520561532005798,10.032806897077897,10.14724956130312,9.689478904402229,10.910200656137942,12.207217517357137,11.291676203555353,12.130922407873655,12.664988174258028,12.359807736324104,12.054627298390173,12.436102845807586,9.3842984664683,11.90203707942321,9.002822919050889,10.605020218204015,8.773937590600443,10.299839780270085,10.605020218204015,12.207217517357137,11.139085984588387,10.605020218204015,8.545052262149996,10.605020218204015,8.773937590600443,10.49057755397879,12.741283283741513,9.536888685435265,9.536888685435269,10.528725108720533,8.545052262149998,8.468757152666516,9.155413138017856,8.468757152666514,9.00282291905089,10.14724956130312,8.39246204318303,8.087281605249103,10.14724956130312,9.689478904402227,8.468757152666516,10.223544670786602,10.10910200656138,10.528725108720531,9.308003356984816,8.62134737163348,9.76577401388571,7.858396276798659,8.31616693369955,9.613183794918745,10.147249561303122,9.842069123369193,9.155413138017853,8.697642481116961,9.842069123369193,10.147249561303122,9.3842984664683,9.842069123369193,9.07911802853437,8.621347371633481,8.62134737163348,9.384298466468298,7.400625619897765,9.308003356984818,7.743953612573435,8.239871824216069,10.605020218204015,8.31616693369955,10.070954451819638,8.354314488441291,10.07095445181964,9.994659342336156,9.460593575951782,8.545052262149996,9.00282291905089,8.239871824216069,8.468757152666514,8.545052262149996,8.850232700083925,9.460593575951782,8.545052262149996,9.155413138017853,8.735790035858702,8.010986495765625,6.942854962996875,7.019150072480352,9.308003356984818,8.468757152666516,7.476920729381247,7.095445181963837,8.39246204318303,7.62951094834821,6.866559853513392,7.629510948348212,7.858396276798656,8.316166933699549,8.506904707408257,7.55321583886473,7.019150072480354,7.62951094834821,6.7902647440299075,8.239871824216067,7.858396276798657,8.010986495765621,9.42244602121004,8.621347371633478,9.842069123369193,8.850232700083925,8.31616693369955,7.553215838864729,7.095445181963835,8.010986495765621,8.125429159990844,8.621347371633478,8.545052262149998,7.934691386282139,7.705806057831692,8.926527809567407,7.400625619897765,8.201724269474326,8.316166933699549,7.896543831540398,7.095445181963836,9.76577401388571,8.31616693369955,8.850232700083925,8.239871824216069,7.476920729381248,8.392462043183032,8.010986495765625,6.7902647440299075,7.476920729381247,7.62951094834821,7.629510948348211,8.545052262149996,8.087281605249103,8.239871824216067,5.340657663843746,6.0273136491950865,5.874723430228123,6.0273136491950865,6.027313649195088,5.951018539711605,6.179903868162052,6.79026474402991,5.569542992294194,5.340657663843746,5.798428320744641,6.256198977645532,6.103608758678568,5.798428320744641,5.722133211261159,5.645838101777677,5.6458381017776755,5.111772335393303,5.41695277332723,5.493247882810712,5.1880674448767845,5.722133211261156,5.416952773327228,5.6458381017776755,5.035477225909821,6.752117189288166,6.561379415579465,6.256198977645534,5.874723430228123,6.027313649195088,6.713969634546423,6.408789196612499,7.248035400930801,7.171740291447319,7.705806057831694,7.553215838864727,6.408789196612496,6.561379415579465,6.256198977645537,6.256198977645534,7.362478065156024,5.874723430228121,6.561379415579463,7.782101167315174,5.798428320744641,8.621347371633478,6.713969634546427,6.790264744029906,7.782101167315174,6.4087891966124975,7.553215838864731,6.446936751354236,5.722133211261159,6.332494087129015,6.790264744029908,8.926527809567407,8.010986495765621,8.926527809567407,7.629510948348212,5.874723430228123,8.239871824216067,8.926527809567407,8.316166933699549,6.713969634546425,6.790264744029908,6.713969634546427,6.332494087129015,5.645838101777677,6.675822079804686,5.722133211261158,7.095445181963837,6.4087891966124975,5.5695429922941955,6.103608758678568,5.874723430228123,6.485084306095979,5.874723430228123,6.942854962996872,6.7902647440299075,6.332494087129016,5.188067444876784,6.561379415579461,6.7902647440299075,6.561379415579461,7.171740291447318,6.599526970321203,6.637674525062943,5.340657663843748,7.705806057831696,6.0273136491950865,7.133592736705578,5.874723430228123,7.171740291447318,5.722133211261158,5.264362554360266,6.485084306095979,5.1880674448767845,6.256198977645534,4.730296787975892,4.882887006942855,4.348821240558481,4.959182116426337,6.179903868162051,5.035477225909819,5.111772335393301,6.637674525062944,6.0273136491950865,5.9510185397116055,5.951018539711607,5.874723430228123
P11,6.866559853513394,10.147249561303123,42.07675288014039,82.93278400854506,85.83199816891738,91.43968871595331,59.81536583504998,58.175020981155114,55.39024948500801,34.48538948653391,41.313801785305564,40.58899824521249,33.72243839169909,36.27832455939574,32.196536202029456,31.433585107194627,24.567025253681244,33.60799572747387,22.659647516594188,34.02761882963302,26.0166323338674,24.56702525368124,21.400778210116734,27.695124742504007,22.354467078660257,22.81223773556115,20.904859998474098,22.659647516594188,22.316319523918516,19.607843137254903,19.49340047302968,16.479743648432134,18.38712138551919,13.962005035477228,14.953841458762495,18.387121385519187,16.174563210498206,15.793087663080797,17.776760509651332,17.776760509651332,17.471580071717405,15.10643167772946,13.199053940642408,16.6323338673991,17.471580071717405,18.158236057068745,14.572365911345084,11.749446860456246,16.021972991531243,14.343480582894639,17.01380941481651,16.708628976882583,15.869382772564279,12.054627298390175,15.335317006179903,10.98649576562142,10.757610437170975,8.964675364309148,7.476920729381252,5.722133211261159,5.188067444876786,4.882887006942852,6.713969634546427,4.272526131074997,3.8910505836575915,4.8065918974593735,4.0436408026245605,5.035477225909819,6.637674525062945,6.561379415579463,6.713969634546427,7.476920729381246,7.705806057831693,8.239871824216067,9.07911802853437,7.62951094834821,8.354314488441291,8.697642481116961,9.956511787594415,8.087281605249103,8.926527809567407,11.139085984588387,9.460593575951783,7.324330510414283,7.1717402914473185,9.460593575951782,9.422446021210042,6.713969634546426,8.125429159990846,5.9510185397116055,5.874723430228123,8.087281605249103,6.637674525062943,6.713969634546426,6.561379415579461,8.773937590600443,4.5777065690089245,8.545052262149996,15.106431677729457,25.368123903257803,35.4009308003357,31.50988021667812,28.000305180437937,20.447089341573207,19.03562981612879,13.962005035477226,12.054627298390175,8.01098649576562,9.155413138017856,8.392462043183032,23.346303501945528,21.744106202792402,22.85038529030289,22.507057297627224,24.18554970626383,23.804074158846422,20.103761348897542,20.447089341573207,26.474402990768294,19.37895780880445,20.9048599984741,22.964827954528115,21.59151598382544,20.21820401312276,19.22636758983749,23.727779049362937,24.18554970626383,24.33813992523079,21.858548867017625,23.727779049362937,21.057450217441062,22.04928664072633,24.643320363164726,19.83672846570535,20.141908903639283,17.01380941481651,20.447089341573207,15.831235217822536,20.37079423208972,16.93751430533303,14.572365911345084,16.021972991531243,16.861219195849547,15.564202334630352,13.885709925993746,13.885709925993746,18.53971160448615,16.746776531624324,12.664988174258031,16.6323338673991,15.106431677729459,17.62417029068437,20.9048599984741,21.820401312275884,17.547875181200887,22.316319523918516,22.659647516594188,17.586022735942628,17.814908064393073,18.15823605706874,19.989318684672313,18.50156404974441,21.553368429083697,16.17456321049821,22.65964751659419,22.240024414435037,23.651483939879455,24.452582589456018,23.117418173495082,24.338139925230795,21.515220874341956,24.567025253681244,21.553368429083697,20.29449912260624,21.66781109330892,23.270008392462046,20.981155107957584,20.141908903639276,23.99481193255513,23.91851682307164,23.72777904936294,25.482566567483026,25.864042114900435,22.96482795452812,26.245517662317845,23.8803692683299,29.14473182269017,20.675974670023656,27.04661631189441,28.610666056305792,30.251010910200655,22.812237735561155,22.468909742885483,26.817730983443962,24.719615472648204,24.757763027389945,28.22919050888838,25.02479591058213,22.73594262607767,21.782253757534143,20.2563515678645,24.75776302738995,23.537041275654232,16.51789120317388,18.005645838101778,16.93751430533303,15.716792553597315,18.15823605706874,17.547875181200887,15.678644998855574,19.264515144579235,15.640497444113835,18.387121385519187,20.141908903639276,21.133745326924544,26.58884565499352,26.09292744335088,29.22102693217365,31.242847333485923,30.06027313649195,20.981155107957584,19.111924925612264,24.33813992523079,20.752269779507138,24.719615472648208,25.94033722438392,36.69794766155489,22.583352407110702,16.09826810101473,13.389791714351112,13.199053940642402,15.564202334630352,13.084611276417183,10.681315327687498,9.155413138017854,11.291676203555351,10.14724956130312,10.528725108720533,20.29449912260624,18.616006713969643,10.986495765621424,17.70046540016785,19.340810254062713,20.447089341573207,18.84489204242008,20.408941786831466,20.752269779507138,17.013809414816507,18.883039597161822,20.752269779507134,19.188220035095753,21.24818799114977,19.07377737087053,22.12558175020981,21.13374532692454,16.021972991531243,14.991989013504234,17.776760509651332,17.776760509651332,15.335317006179904,17.66231784542611,18.883039597161822,16.060120546272984,13.885709925993744,15.48790722514687,15.106431677729459,14.648661020828566,18.463416495002676,18.7685969329366,14.381628137636378,11.596856641489282,16.250858319981692,19.760433356221867,15.945677882047761,15.487907225146868
P12,15.22087434195468,21.51522087434195,21.438925764858475,18.463416495002672,24.032959487296864,20.599679560540174,21.28633554589151,24.032959487296868,19.645990691996644,21.28633554589151,18.844892042420085,21.59151598382543,23.956664377813386,20.447089341573207,16.86121919584955,18.84489204242008,16.289005874723433,19.798580910963608,15.86938277256428,18.84489204242008,19.53154802777142,15.793087663080797,14.877546349279012,20.370794232089725,18.53971160448615,21.0955977721828,21.21004043640803,18.84489204242008,17.090104524300003,14.343480582894635,16.6323338673991,20.63782711528191,18.463416495002672,19.95117112993057,20.56153200579843,18.806744487678344,19.684138246738385,18.31082627603571,22.201876859693296,19.76043335622187,17.090104524299992,19.073777370870527,16.708628976882583,21.133745326924544,19.150072480354012,21.896696421759366,22.392614633402,27.313649195086604,26.09292744335088,14.877546349279013,17.814908064393073,18.539711604486154,29.449912260624096,24.109254596780353,26.51255054551003,29.297322041657132,31.128404669260703,34.752422369726105,37.003128099488826,31.43358510719463,30.09842069123369,26.550698100251772,26.09292744335088,33.64614328221561,36.049439230945296,29.945830472266728,33.95132372014954,33.951323720149546,27.38994430457008,25.101091020065617,35.629816128786146,26.70328831921874,21.21004043640803,23.49889372091249,26.28366521705959,24.33813992523079,29.297322041657132,22.27817196917678,25.329976348516063,20.447089341573204,27.542534523537046,27.313649195086597,17.013809414816514,19.91302357518883,23.002975509269856,20.67597467002365,24.414435034714277,21.782253757534143,15.831235217822538,25.25368123903258,27.38994430457008,17.090104524299992,19.53154802777142,21.820401312275884,25.329976348516063,30.70878156710155,22.12558175020981,28.76325627527276,22.926680399786378,24.299992370489054,25.139238574807365,29.488059815365837,28.038452735179675,30.51804379339284,26.550698100251775,18.883039597161822,30.518043793392845,26.359960326543067,21.896696421759366,20.14190890363928,24.948500801098653,22.621499961852447,28.8014038300145,23.80407415884642,22.12558175020981,20.408941786831466,21.43892576485847,25.406271457999544,23.46074616617075,20.981155107957584,20.866712443732357,23.651483939879455,25.329976348516063,22.35446707866026,21.744106202792402,22.888532845044633,28.801403830014497,24.757763027389945,32.34912642099641,26.32181277180133,23.727779049362937,25.329976348516063,24.032959487296864,19.83672846570535,24.567025253681244,24.719615472648208,22.12558175020981,23.613336385137714,26.28366521705959,25.024795910582135,25.63515678644999,22.507057297627224,19.378957808804458,27.542534523537043,22.659647516594188,22.507057297627224,22.507057297627224,22.850385290302892,25.444419012741285,30.365453574425885,25.558861676966508,23.15556572823682,21.59151598382544,25.71145189593347,22.163729304951552,24.299992370489054,20.065613794155798,28.534370946822314,26.77958342870222,23.42259861142901,25.520714122224767,22.430762188143742,24.032959487296868,28.26733806363012,27.504386968795302,15.25902189669642,15.793087663080797,16.784924086366065,18.84489204242008,22.011139085984592,19.91302357518883,18.921187151903563,23.8803692683299,32.65430685893035,31.280994888227667,20.675974670023653,24.94850080109865,29.22102693217365,26.398107881284812,22.354467078660257,15.259021896696423,17.70046540016785,17.471580071717405,15.754940108339058,16.174563210498206,27.313649195086597,22.201876859693293,24.414435034714273,20.103761348897535,20.943007553215843,14.496070801861602,21.477073319600215,20.141908903639276,14.11459525444419,16.93751430533303,16.17456321049821,19.340810254062713,12.817578393224993,18.692301823453118,13.504234378576335,19.95117112993057,14.80125123979553,15.259021896696423,14.496070801861604,16.021972991531243,19.91302357518883,15.449759670405129,18.463416495002672,18.08194094758526,18.234531166552223,18.501564049744413,21.896696421759366,15.983825436789502,20.52338445105669,16.55603875791562,17.013809414816514,20.294499122606243,19.18822003509575,18.539711604486154,23.46074616617075,13.504234378576335,11.673151750972764,13.656824597543297,14.763103685053789,15.640497444113834,16.403448538948656,11.673151750972764,14.381628137636378,16.403448538948652,11.978332188906693,14.267185473411155,15.411612115663388,14.572365911345084,10.605020218204013,15.411612115663388,11.444266422522318,10.14724956130312,11.673151750972764,11.13908598458839,12.512397955291068,10.83390554665446,10.986495765621424,15.297169451438165,14.724956130312048,15.983825436789502,13.885709925993744,15.411612115663388,14.572365911345083,21.362630655374993,20.29449912260624,15.297169451438164,16.784924086366065,14.343480582894637,13.885709925993746,14.114595254444191,14.190890363927672,14.572365911345084,12.664988174258031,12.588693064774548,15.25902189669642,13.122758831158922,13.122758831158924,13.160906385900663,14.877546349279012,16.55603875791562,12.436102845807584,12.130922407873655,13.656824597543299,12.397955291065843,13.427939269092851,20.29449912260624,16.93751430533303,16.327153429465174,13.771267261768523,15.564202334630352
