,F01S01,F01S02,F01S03,F01S04,F01S05,F01S06,F01S07,F01S08,F01S09,F01S10,F01S11,F01S12,F01S13,F01S14,F01S15,F01S16,F01S17,F01S18,F01S19,F01S20,F01S21,F01S22,F01S23,F01S24,F01S25,F01S26,F01S27,F01S28,F01S29,F01S30,F01S31,F01S32,F01S33,F01S34,F01S35,F01S36,F01S37,F01S38,F01S39,F01S40,F01S41,F01S42,F01S43,F01S44,F01S45,F01S46,F01S47,F01S48,F01S49,F01S50,F01S51,F01S52,F01S53,F01S54,F01S55,F02S01,F02S02,F02S03,F02S04,F02S05,F02S06,F02S07,F02S08,F02S09,F02S10,F02S11,F02S12,F02S13,F02S14,F02S15,F02S16,F02S17,F02S18,F02S19,F02S20,F02S21,F02S22,F02S23,F02S24,F02S25,F02S26,F02S27,F02S28,F02S29,F02S30,F02S31,F02S32,F02S33,F02S34,F02S35,F02S36,F02S37,F02S38,F02S39,F02S40,F02S41,F02S42,F02S43,F02S44,F02S45,F02S46,F02S47,F02S48,F02S49,F02S50,F02S51,F02S52,F02S53,F02S54,F02S55,F03S01,F03S02,F03S03,F03S04,F03S05,F03S06,F03S07,F03S08,F03S09,F03S10,F03S11,F03S12,F03S13,F03S14,F03S15,F03S16,F03S17,F03S18,F03S19,F03S20,F03S21,F03S22,F03S23,F03S24,F03S25,F03S26,F03S27,F03S28,F03S29,F03S30,F03S31,F03S32,F03S33,F03S34,F03S35,F03S36,F03S37,F03S38,F03S39,F03S40,F03S41,F03S42,F03S43,F03S44,F03S45,F03S46,F03S47,F03S48,F03S49,F03S50,F03S51,F03S52,F03S53,F03S54,F03S55,F04S01,F04S02,F04S03,F04S04,F04S05,F04S06,F04S07,F04S08,F04S09,F04S10,F04S11,F04S12,F04S13,F04S14,F04S15,F04S16,F04S17,F04S18,F04S19,F04S20,F04S21,F04S22,F04S23,F04S24,F04S25,F04S26,F04S27,F04S28,F04S29,F04S30,F04S31,F04S32,F04S33,F04S34,F04S35,F04S36,F04S37,F04S38,F04S39,F04S40,F04S41,F04S42,F04S43,F04S44,F04S45,F04S46,F04S47,F04S48,F04S49,F04S50,F04S51,F04S52,F04S53,F04S54,F04S55,F05S01,F05S02,F05S03,F05S04,F05S05,F05S06,F05S07,F05S08,F05S09,F05S10,F05S11,F05S12,F05S13,F05S14,F05S15,F05S16,F05S17,F05S18,F05S19,F05S20,F05S21,F05S22,F05S23,F05S24,F05S25,F05S26,F05S27,F05S28,F05S29,F05S30,F05S31,F05S32,F05S33,F05S34,F05S35,F05S36,F05S37,F05S38,F05S39,F05S40,F05S41,F05S42,F05S43,F05S44,F05S45,F05S46,F05S47,F05S48,F05S49,F05S50,F05S51,F05S52,F05S53,F05S54,F05S55
P01,8.35524042673609,9.668368870738965,15.460663825733395,9.466756458470455,8.737901139229265,19.09831806648549,14.052216712289667,14.363869303951347,15.04383782758686,10.482231589089578,17.745467633800576,9.655580928108321,15.241674039566956,10.260385687917532,13.642399701010415,19.828383329917926,8.864827073917136,12.82171125935156,10.927622273942307,15.410326162341555,9.681927174758082,12.428635470058483,8.845419488093736,9.699561150691283,12.889289285912149,23.645001303354057,10.216316829792216,9.505928255216928,11.848183475628426,7.3285763459650894,11.414996372994885,16.659957268296893,9.692247128135758,8.852808825393883,10.673488557825818,6.527983903856722,12.542936060188644,11.368530741703283,10.067760627322262,15.122972117600558,6.209926094860997,11.94475495574122,8.12535517101693,9.974637967110882,13.47540569658874,12.445364874331112,10.83633851801847,10.849939645413125,18.647654919323877,13.185003883945289,8.199122562571278,12.326177834125795,9.042990130269933,10.66373440564569,19.632385698745896,21.868176771211502,20.353962700978652,15.426391031908963,21.944292635018694,19.86012587772709,25.071514233221713,14.574387825870502,28.805136633684786,17.530813075579648,17.86165835150167,18.75487077223321,25.887245033131066,20.617256002139566,16.106169059766522,20.235874150740866,12.572177442672384,17.270889411695084,16.777338030604284,32.3923196705287,16.40116610518933,18.20022499263143,15.559002612127884,17.177162324568226,17.632131226099474,18.576546956898557,15.72360572670869,17.19812663850662,20.050293074776544,25.500728643848408,14.361352270804726,32.98459316016017,20.343153394475628,25.190313791829478,16.74060031624042,27.253582711093035,20.066057506128473,22.09062377801519,30.345335489564143,15.215313822391739,13.786010353883118,16.267562966488224,20.451182965968965,23.779797303258285,16.589787734497424,21.144434935883318,19.735067760034415,24.948481019317423,14.980478798813028,24.534072317579547,13.690201481707852,16.512229084608382,17.22979071531527,30.07865687930539,22.73155434993286,15.209939272899938,8.53162286262396,21.32524029591723,18.933756920791872,14.398303020773522,30.492931646343436,15.95285884875506,20.4251379332787,14.813628077122054,11.282708681940687,11.563223776353807,17.55214130048272,22.310152456039447,16.69055604546143,14.871821428713432,21.016566850280984,39.71640697364763,15.21337479287224,29.582086535799164,26.866378398192705,22.020620174021655,13.722889216360958,14.500661449286323,27.994209837396347,15.467040421553875,27.12280949615556,16.115599834899058,29.50692352195047,36.066285239017304,26.52038951751888,28.1058511936724,29.46288588222781,20.78772628332702,35.252911372524565,28.331593796301693,24.81984226743224,27.636617839882724,26.945943096917638,29.551626361510046,34.27165735343937,27.466454533586884,31.73245771354204,27.185212093072398,29.814607274055028,31.200203587282054,25.726782405318854,59.62935357747954,37.15059374140839,-0.06725766379519538,32.5761835229046,56.13229757804612,65.36010357880176,38.65947779810154,31.862437709625077,51.30329778081297,39.93354666401043,5.217040382656547,2.6950597224858432,7.4440487082112785,8.379373458632545,3.842031512559169,4.138982717984651,10.948840445075456,3.745657394591971,3.248434108533175,3.6054519530610065,8.874857878302102,8.18652892499466,5.797891966555669,12.075502405383117,7.850809384474351,8.567818906467316,8.047492523497079,8.312021374691975,4.119254872000563,3.7021963419798842,8.162305710399819,7.938184634452313,8.48647492383303,4.122085430652387,3.291238283906301,6.731984731522941,3.918413949054915,4.45666941248843,8.770343020602464,3.404946208082893,4.937589842075012,5.749067295506768,7.632835625339473,5.550102702978741,8.537575364010353,12.258102071680312,6.272952355756255,7.892289521384107,6.214816216510291,3.8835320323495024,5.771946853499715,6.063561836558415,1.441027548977166,10.611707979758126,8.289865119668569,3.0003297499941075,5.758004448891096,6.811800153929786,9.727845466371843,8.333632993801066,5.395996501052636,8.131203546744981,6.206317778004792,7.909476448818941,4.39603437062922,11.8013676524952,1.1701795768273957,18.042703180875083,22.349978649169426,14.767931039926264,14.963607786235379,15.193616678610784,19.425762088985877,9.5214816658924,9.591666294033745,14.94769436589809,19.808828598632623,10.735789603977327,23.3623748092194,16.351094807882586,19.344783452065577,17.511503330672227,14.063413683265221,20.431571111679578,21.576793770214284,10.57901490808634,14.50935731786046,20.94742652882873,22.61507926586494,16.524960033736885,29.376431059851598,17.736519737025855,-0.13968169773868722,0.9909890485454369,16.980338012048446,3.0260165513060597,9.746731023928325,18.20186788413737,10.693961088412603,17.648654052254088,11.457889622182863,19.756874103132276,15.49339961547318,8.058250603695168,20.47037615602782,13.388180777346157,10.415078876544163,25.691721662066776,13.945692329155207,13.74635602093586,19.90827776154005,24.96488698063053,19.096897737045598,4.433420222222319,15.782444891422276,19.06691498861676,13.478211483062438,1.1123780330357596,3.3431707134254482,-0.5114010638109341
P02,9.893509089073302,13.315248671999527,9.05406860423206,9.564710638394088,10.309224196562067,12.230119625453545,10.705195950009537,19.599986441539965,8.855173957349717,10.323833507449018,13.139979627420338,7.594623374279665,9.116389067102483,13.252694327254268,11.232235097250937,10.278621598045413,8.77678643151987,7.00914671148864,8.855571526343867,17.031313707920294,9.413853115569204,12.853136053244613,9.402614002011685,10.199565134613756,17.923753931634742,12.127648102990609,11.719855912123151,9.302263127837156,6.236303766953032,7.041556918946441,11.589394732413027,9.100833858621792,7.182665180101065,21.88946443532732,9.128628803152477,14.134486838280708,11.810448328735797,9.91379316323259,9.967200007293625,9.265139589209936,8.429236396847347,9.15258607851044,7.800900152725568,21.26130097966074,10.96692986198945,9.932699666954969,9.138057313252789,11.684205322863308,9.833855682543904,11.072601776955256,9.85443846555714,7.327367371546082,9.457878464830213,12.817917254516278,10.638819798325144,2.998042089931113,6.302626293578452,5.388158882335304,8.95230171530096,3.36951491009411,5.438726497217457,2.9086034566165804,1.0883707751752265,4.3178924582179015,4.06399458343955,0.858479083224784,8.008608632124727,2.231968904326343,4.859074068332537,5.581712549322592,7.521445529896027,3.0394810528155087,3.6937492272623738,4.692280491696961,4.133989042414436,13.344473892757975,9.840710789451812,9.38754369760624,3.159695410370696,6.433155896793616,7.082495105853585,6.1918135210704826,4.191907338799487,4.074740103197299,4.995720779557171,5.331111299576525,6.110834227126057,3.1366528710447943,2.3488824938840587,3.5786443624931863,7.888364283631956,3.717914077992292,1.6192587543448385,7.664468366239067,14.358613811861183,4.121565047914445,12.214383144705726,2.722940135138427,4.8040398663601,4.527941216896287,4.928932431039505,3.7948459923240563,8.848639680637937,6.409563173631005,2.1403705072997594,3.9417624345505704,4.453999873043141,4.372826930719842,6.103100569383884,5.79315601838046,17.08736127843759,24.35136541105731,2.9960684962845363,28.351967304701816,20.686248009439996,53.856858309762316,64.62074510198167,51.859286936276476,35.58863381910787,31.242845127443324,42.04765740383331,26.03549912978097,35.2965478953417,43.911480319857105,41.146047277756686,61.93873533457595,48.50700954958809,54.65696434997064,34.46920922489948,28.39718481232912,54.83449005901932,30.31208289575929,38.018953126507945,44.26818934896978,25.487449084751773,22.13163749847203,23.20091880026623,19.23684751781865,51.4956987420148,58.103435981271936,29.726713616880836,12.673529570013768,18.22396622791801,37.454929154960496,37.03218835236822,29.704352975929247,40.03051055934103,47.06248792147138,34.67938292533944,44.5635205584244,32.86265795359338,48.669179261408715,27.734987536795483,54.82802191850507,41.853309679417016,22.395996515972403,37.989460847369465,44.09778681865837,41.884240887874434,27.253911313760184,44.70784659094983,45.56043155515038,40.839324721086456,30.641914398694297,58.373818038828354,4.040247736006263,6.157427931933132,3.7132054162398465,6.208641056094105,2.9765565209207034,6.790628730075726,4.9573696017430775,4.959720399988711,3.4548412322836173,3.4257139666397913,5.157843456251488,4.098407998297378,4.333535107475266,5.313022595322392,5.718467591710077,2.9733380048706826,4.462767443065422,7.902062076343096,3.070390955960127,5.8448134900115,6.678130897741246,2.554551822279713,2.814309374567121,4.5718844341932074,4.537161919631507,4.049788558207751,4.289362647514279,4.481147205331794,3.1714635267122873,5.5889935128311485,6.338701437422236,5.2017861555641876,4.822372234035062,6.013604656279169,9.173346483547572,7.899410242516051,3.887798316498648,3.510918867415435,4.688936262613427,4.8675270080076025,3.791568675487092,6.5553144446348615,5.785414303972297,9.730706902345586,8.200797960345172,6.287676348520495,9.370858684021398,9.303099210112311,3.730402781261141,7.222333898229815,5.153380264649849,6.069329025351765,6.605842736895381,3.9604822981504446,5.671421451689314,13.193082491909394,13.03571131319298,10.485193168338997,11.144273115465452,11.95999825362653,9.791556339023304,10.421869928053495,9.5271194339165,9.68994737577409,6.0822213697210845,6.543497933171675,20.91046672839477,8.256065544012747,9.695777525729893,10.342559359114826,8.598426944570978,6.699388406472481,7.377594198445868,6.989755172793197,9.307612552498869,12.507833470212185,8.567851626194239,9.354604718292645,9.073986412598117,13.322394374943574,6.082522103808516,13.004471350200571,10.616986485453046,11.255318854597672,8.767045483861624,9.423953669556054,5.985937460974778,4.8584072608959685,7.761261559903232,7.958992509474717,12.536170279396408,19.435828149585898,7.29044451187543,8.395332512127021,9.091633011872966,13.724422820637063,12.100012668116495,11.140562409926805,11.127047547541473,5.8772408385110975,8.022351462927933,10.102237562574762,15.55025287622258,5.5068054026810564,18.6565884243901,6.090025521645023,11.862204380949187,22.890483280476673,10.554791940064268,14.093489100468606
P03,66.07306742281148,62.711445583760636,65.35614719246729,63.153961320358945,66.60854812228717,64.13606566853575,63.2341632632417,65.19893021972919,54.88781597785177,71.16348312476809,64.32403906395399,65.2662167929113,41.058415435719915,64.28701238577045,64.0366513678648,67.08047059681921,67.61156410157295,61.4891285152559,43.22699576959028,63.86960357051514,63.29002831839476,43.43120923909973,61.02684356375116,62.894498517742576,64.47931443749758,63.79089085952934,62.65738717874393,65.7384300411958,63.5781136875395,60.396138709569975,42.07626725993789,63.45334793254541,64.84332758545754,63.98685547556191,63.242276353407505,63.115533406353435,64.06836531657537,41.898022409864794,62.630610001004655,64.4108201554595,41.775399965338515,63.584886609339435,63.581163193918144,41.61724903745451,60.61410654013746,66.33510943807909,62.250606314462985,64.51258125355793,62.94248726520536,61.01065529461249,58.88293881364053,61.756321074662,65.68186469525362,145.43996906952736,-0.06485534589022146,17.62560943601671,20.49866729018993,14.354247416308986,15.706827091246812,14.916160497079066,22.466439788480166,12.039307893794758,12.775403953734338,14.830003736547212,17.53335511143545,13.46167300127119,16.52486575591884,20.39289532927231,15.37986431593405,14.978717016011583,14.24682818759085,29.465008549359098,13.956809938520294,13.662865400764698,22.071983651958472,13.08194323629382,23.784088220239624,15.343233161275158,15.44021167089955,16.506839786300258,18.68953010458096,15.284273700467999,19.632845453105464,13.640784397003276,20.908968096070456,12.778950029696002,15.700879896849386,15.418261781221453,15.629857228466207,20.46716886926985,14.479403574941216,10.198051839469231,16.205975203215193,16.444858610699935,15.47281804379692,20.187356506810247,15.692245658799582,17.07679396945084,14.62633499227293,18.344929702386228,18.001967931599474,13.46985582783135,13.883133478499186,14.830249607477914,18.495937131322645,16.665950698089766,16.733503406880676,21.124987587100595,16.67404251907375,12.248023786036377,18.00217582169357,23.0136523322032,18.395540722926967,18.23576452928343,14.819498738066596,24.92126482924649,16.542809557807303,16.754254968842716,15.501961126339438,15.179029085977533,12.050981047903445,11.180481531951072,20.54048550126843,22.820773121630644,17.59566534686642,19.541798580769715,23.36851061638285,16.77985131032582,26.295664589955486,15.599597673768987,19.70845565514077,16.525809465013314,16.32432702435426,19.001634592802045,17.994721757309172,17.618619075396314,10.387570577759218,15.447224289247174,30.741179785824713,18.016819290629947,11.81060702322471,25.181685234770114,21.75586352120915,18.971623839603524,34.903041772322126,17.62623114194928,28.170924865305402,18.367242082118203,42.41360320708034,13.832498839348624,13.702729697617826,27.353331197931656,18.895984072533153,17.16372543138278,34.51734149118141,23.439336799698264,16.989378501333988,20.520881483227033,18.811605832772383,11.548204701684748,11.018866661283969,14.185726937888752,15.624287345307277,13.960782622766711,26.002537321600798,40.01146754538804,21.77775632630531,2.4235017779886956,24.069584999021846,46.31107506959825,45.976939281132694,24.0436721380575,46.259432155728966,4.051131775769995,49.97853299055719,24.084130449045606,22.00906419330872,32.79747027491511,27.517660080291442,31.753914488248007,25.652914633310676,23.839271823307904,50.484343939322656,24.246890656582472,39.85511319967227,46.451834559661286,51.01125236723153,24.53046560644431,47.408412471689864,43.00012117399387,46.03802764734794,37.78579774741533,26.593185436554116,48.08647115957781,4.035152348252713,5.526293207538988,2.3404832466856247,2.229323479906588,1.5323807379669905,3.7389479813452455,16.19516001684867,26.53503549067222,25.453507090547177,25.38796531168002,25.642528027412933,26.43472946352177,25.36294162903295,25.056180645327476,24.58030856976191,25.08775512040423,39.86311938722807,24.347104559735538,23.650587455977718,25.846542145444754,28.182815323532033,37.66134711673003,26.04242802918262,21.444743487358533,3.656267838472944,33.5089577653818,17.212764826618205,26.234493285816587,19.907960691842455,26.181275336020494,19.410872419969543,19.754837942940522,17.666341977643505,14.493252008315203,14.792423676707333,20.708169981822532,29.46666303326019,13.178152766738606,23.022810259989647,16.035007809468755,49.667438631054466,13.297215033902138,22.04752603457788,19.802523799184122,17.257410661053992,16.519416624003163,24.95371904152245,19.28674224025534,16.68536271072947,18.050080578012587,12.851692781703678,26.54827261659054,17.205392771327716,22.307011582564826,24.422684016762645,19.843755823484464,25.67264486969043,16.905139458340635,23.304586354181648,17.188609761575933,21.95456613624541,22.105327367223754,25.800499300512417,18.297364168113326,19.489405222947664,19.342399801611577,15.801845776202942,15.005123200526054,19.27173611733571,19.76945501115643,14.088701824023588,13.638137968635021,20.03216923656264,14.921921993726226,14.131838561427823,15.715144162915642,12.659733051849368,20.491935938672793,28.475576611625765,17.574029618852638,15.132697415822264
P04,34.83294403381857,35.58307915592844,26.706175082007746,32.40408132358291,27.269598241638114,30.05402358707361,38.10823106305781,31.771454967001276,24.08492033206191,23.611462679779358,35.103305002531634,29.675917914207503,26.502651027550428,30.8919138666665,22.338442246248654,21.304642395992083,30.819111169139568,35.01434304998265,43.81651770681695,37.1234475654675,25.305572180277206,24.838307891276898,23.70447451165174,22.505559091666637,27.679667196958782,42.91727458049904,20.17829767176983,26.583149336974266,43.9621245898431,20.606082559443948,28.397350953965386,29.77797206493335,25.20106908681647,22.963660644995606,19.507487611357167,31.119102809718427,27.327675702587204,23.17657578824061,21.4390178270605,23.274900423983976,13.040279527575464,23.403629882988866,17.35954710026004,21.305281155245737,28.11237301281846,39.28129041016981,23.78208648956169,25.982735201165507,21.69740173585003,16.981166651500008,22.378864428591662,22.877696614955266,22.370672394441403,45.79509210279269,1.3808620216408674,6.175336632708468,5.840853636834698,16.34092575108446,6.535906858124045,9.98789425353102,6.019080811669141,6.9388363405000355,5.142740029078716,4.279861318230468,4.717891708006444,8.696408298908398,8.666408787955831,4.797076751129556,5.757063251878339,8.041276870958686,5.318923496944661,5.210104452000419,5.235948661304853,8.351649132250683,4.843469779458893,7.425321982187439,12.42144363841724,5.9826807496233325,6.4124727417547565,6.003271426898861,6.648855746023607,4.671195466012372,5.8602562169428385,7.415120732481462,7.865724995850652,8.872892893424927,5.877210952978272,6.616396032973682,5.675625226944145,5.919787312623473,7.12460374926799,5.320984129129119,4.059837065411409,7.707282737172649,7.731814307394016,5.322265868373512,7.100612096220653,5.164796487543429,7.758431002811559,6.786985951673794,5.202122454643931,12.634528819238737,5.8217499432705,8.80706226785534,4.460065313228753,7.41807141726464,3.978559560922493,6.733338784198859,11.472489804679107,10.484585607104984,51.9489917255906,51.051716254233035,55.93919243353481,94.40158729714192,60.31512478399628,59.04607759671368,53.94707430791184,94.87420653010972,48.169198596454,81.09753312950971,59.321347815952606,58.238944608459626,55.52053704020373,43.559673629823905,42.85054227075507,49.14376226150458,47.14145426541364,47.58114014640626,62.54079001318691,48.4434520437403,68.22666667252331,54.94454357686158,53.592023091808805,51.36617409938436,39.31737379318882,45.93787267614453,36.65998299781909,40.844469189984615,56.91699082013018,51.86185724840686,53.09102688997826,34.763450067846584,61.22496770360485,52.60239192494812,57.1271292130738,51.910176481410915,58.08568522330583,56.41331321640785,36.43708192922053,50.36880528350337,61.48440553032616,58.180829966224316,50.54358001136381,35.245051772352056,52.76522979989497,56.775792411339886,37.9132474016446,50.616443788965114,52.36580040889021,55.81087646926366,45.628531669052535,37.09488018648345,41.97872566374202,51.61841278991055,53.49740131958438,31.807520846023117,28.976735657425998,34.36349946110006,49.41215769452703,35.03947496247949,39.07658668948455,35.35265874133379,31.09074566641828,30.238296980218188,21.350194611711878,29.774604486814937,44.80424381183647,37.84241301729027,64.59229796366957,54.93764896712352,28.271044239500746,42.30191077696535,44.365273573212235,32.41036453512557,36.9102175832628,27.886412094271087,31.903321788826446,29.596862560915625,51.264412191790164,49.60719270010778,66.87633121236189,57.66007028026471,32.12765257014218,4.360777286999783,-0.39998976556568566,-0.5385252062678392,-0.9875120036724883,0.13752275557974247,-0.3535271631573238,-0.3874960042777791,-0.49764731663155093,0.5077268964181387,100.05731233094555,86.24239583754313,80.93963480712262,57.71565541504023,55.13914777040295,32.581509102639146,33.94370437329711,27.51739390012968,24.594999337400136,20.06987391363598,18.963400406205032,15.936835093200738,21.689315828388683,16.257143396819153,10.574020739241998,7.581925844285477,6.643940278778061,4.770858984917332,13.903286980946593,15.682089684975033,17.170631480343275,13.523338510857297,13.703370643829881,17.39331022233016,27.90688143773738,7.914048357211312,8.181235358601652,5.980762208365286,14.210653721201101,11.312574701248366,7.82536466862223,8.62281131392081,7.514337894646099,15.228410316924727,12.879733810080895,9.584877560961875,7.343455118657806,6.486607508414959,17.636453558231725,18.38569102222206,7.483627924609177,20.613864589309564,22.010653290540304,23.796472247799347,12.466201562924027,19.2346273389652,25.701349670116713,17.71071353945512,22.315993719193578,20.508630079946663,14.966203746035141,23.299089837992856,36.88301316995234,25.1017173113647,19.18249120700961,29.525134077402896,24.055347981385047,25.461502850677473,24.524699859949333,17.434568447540798,22.397868291042926,31.43947069608356,23.754383147947014,23.919327685410067,22.050288233793122,19.847134245589977,27.32863192154772,14.931613381144029,20.120975994899965,8.491036890467395,30.916041714271934,20.58073380451734,-0.8997790285892227
P05,12.93085081914816,12.240411429336442,-0.23948382826435566,10.541676829592625,12.816153131358725,18.268409484897425,12.469275913873705,20.525937931892237,17.703751427570122,18.93604949521124,20.15949632820467,22.071216978895098,16.8828130188726,17.82882778633421,18.878331662632338,22.832194055437895,21.537579827831554,19.36231042700816,19.086878449520466,16.918118177787512,17.718561273039874,21.91571385144732,18.654916618821407,21.990538332765826,20.06585626884457,15.503004355834648,17.539291938726848,20.490947779020857,20.035692774454986,19.17708876094326,14.096869448053756,14.041696464823978,19.86251624694893,21.72142652182368,17.015735707891785,23.132864044014998,19.940034544405922,19.69944270402782,16.55933247622338,18.343286473955924,19.484599889439714,22.680735840002022,26.627885243232118,21.349438795114164,18.248128000996616,15.732414570274766,24.398413095111312,15.724141334129325,10.287402383280911,15.520494596180487,17.18023256102169,16.757793639937773,17.78247487588946,17.775108006365986,12.182053405816088,5.708002300552648,2.7968232976914225,4.836815180729405,4.399633529881633,6.66824002214538,10.286135197770918,4.83545693137313,3.6358324750564703,6.229466256313385,14.326360737331225,3.9243649351557215,8.950758614954015,8.694454875156383,11.420553767178525,7.635145361891295,6.832193321417822,9.267327702177635,6.054899541609238,4.826007004820116,3.0161200363715865,3.5522087003881593,4.443945039872339,5.081648937266811,4.202305968875448,3.2321686390803936,7.4304323708473365,9.308338034345939,7.704738773736404,5.315065575098767,5.574434209907976,6.88073380827449,4.303123883335756,2.8636277391864464,1.2870111095906607,7.442247439549815,6.6724828683498725,5.979593291347838,7.285818979184922,7.185527691297201,9.672873761096493,1.9501115592547302,4.0852144739759115,4.980004630606671,3.234559640205397,2.126606957414718,4.827471996024011,3.2513459461601126,7.703380158691925,3.0106597910534934,3.745447681796138,4.1334262413779745,3.4848106377830996,2.736415377160885,3.8091426408152067,14.01970383821871,2.102257390855258,-0.629531835570186,-1.050694069367281,-0.5833293424516235,-0.7332307565898089,4.657334089021156,2.5076516865641203,-1.36541672880212,5.41017813641065,35.98531868877126,0.9196095090422625,19.422039202211153,14.567465653347632,20.56592076354797,2.0437336262112575,27.662992274250325,12.749544260777999,10.979862955345542,50.94880902201821,3.0423684366316532,22.473815458314647,51.83500348059669,17.738475658376586,9.68565631102555,28.42714046182162,7.644910581169379,8.660573798733104,5.165097683502488,44.90521952210048,46.228511941913084,52.575768394236455,36.946559251951335,19.892120489458605,3.654382471141683,5.778098542426655,10.5203503454586,0.7132540796391522,63.250153300520125,42.45209841294545,47.694229743596495,3.3747192361621385,34.61769316394978,0.8663167225304678,19.015004609920894,15.246719192916991,80.60695175965594,18.658653896655924,12.91407820562156,32.60193707825518,31.700346341228098,1.7478903328380806,14.296964003214029,48.22336296481634,14.491949233863561,64.91194514610945,16.124726326187243,13.854744479083045,14.704059291812229,14.40285740896481,18.28620527891981,25.68468275947386,13.86006896811902,13.700748557351407,15.54142608440694,29.700495834201334,32.22711523202051,16.561033079208187,11.879528289074742,17.71196555157312,19.393620079824775,16.651718935056007,19.524265791024952,15.153808470376969,14.83350565216828,22.77994545528524,16.02278354487606,13.162370473991231,15.809438002858734,20.65728649904611,14.000397365443785,18.769646970435236,25.836316485621722,15.205537244541151,18.15007612716971,13.567896010277298,16.748236037294863,19.043717087613764,12.298589835804973,15.13646282443959,12.529330850597317,14.524944873446472,19.110929469430875,13.563840729469582,18.496386632722395,19.27974410590508,13.335307078661874,27.735431705309786,15.824116816051951,18.149863748734237,18.561856107390092,12.774448226947483,17.13083075743924,15.404725807630065,15.22086552803746,18.191787668070152,14.730569882280442,16.761727808466635,15.888704998736731,16.784657281614244,21.016854635992058,26.36116928740134,25.401800947499886,23.316470896370756,21.722020280126962,21.11732861907062,23.486030846491968,33.658638727154596,22.401566404957588,25.109379355470026,19.40153279387534,19.01393550145355,20.608881681542524,21.572417117521322,22.923848872113446,27.617622731276402,19.885102000786194,21.078836178209578,18.15555449790462,18.857555455243627,17.950999152203146,21.42728302559076,12.086880506632296,19.890616626470397,16.453775368926415,31.895576711822585,25.517899221067527,15.94690850300801,17.758407736251726,39.00058233854231,20.564960937143557,21.894095910940777,17.93657236260933,17.48160662425602,13.701069815634806,19.351434947547393,17.5830902459871,20.67200725578732,16.110724089499108,14.965246350189798,15.797420196015004,22.5246115131639,14.744355003676223,17.779137128300075,13.23583363161828,17.10503250112526,16.82293041025279,18.47690376584021,22.653757077815982,20.870981923026783,17.099568518412568,21.992455806854178,16.534723202789085,18.5519827964794,17.371983680069484,17.57448638346261
P06,6.422055470314573,12.625933259191157,10.444959982906129,28.19587905044641,25.405358022770113,19.689432990185065,11.28408692984817,17.080314139788673,15.790474130999414,9.881065885371463,13.708532508418465,17.220812993303266,17.689720335935927,17.191016883157676,16.91348899195351,14.759467767466084,32.640565968226,11.36440178786766,10.016119899634397,11.889398815923043,8.446162937254785,9.359818835562544,23.79192856093133,19.093079643216416,17.973170759592666,8.679268808441869,20.72058092855581,17.27469417449582,13.631519602059921,22.44037388206342,15.625930226832036,17.170379526219868,15.92583363381754,12.353812297108894,7.718877711519074,18.650788797435425,18.032437911907305,10.685883663700624,18.14362713494897,16.92408950710455,15.12811484824159,17.686576055415102,28.790611882519226,16.11605653523289,18.718480184273268,24.62181375083886,15.23171827198965,24.627487841915144,13.477632177806047,10.654631302329985,17.307888063098215,12.847990082174762,36.75283015755136,14.85069654031663,21.08048844148313,29.61555073710882,41.70733117137306,48.55617269586229,48.69209589514119,43.17947293888859,37.11856336116605,34.046411337503464,39.94277869437014,28.050804142781207,47.91616719705686,32.80199928669032,36.12387256439943,40.709875103774905,56.04921123105086,26.326630372814606,62.08397137996157,31.508204119862476,30.292545083484725,30.38052253116181,42.32376711886513,30.571241929839076,47.24998232597302,29.965360749742054,29.562845771156482,60.437324076599,29.390412512677138,59.60923182161696,31.210109978865958,47.22865226516086,41.75108796776102,35.92905343141703,25.092852347902767,47.96369603541253,54.21468589261973,26.993239014927923,51.38006830014449,27.523143553624124,47.1091187905722,31.761561862993346,18.171920352463015,44.100483932559996,30.665683846124352,30.510506470103735,25.554356088080734,41.09216628312353,35.79867358881278,33.46172255827554,22.849427964140943,29.03590289048062,26.984817490585375,24.948083104603594,32.559508891203784,32.47334155157885,25.752689775428713,44.501483270500685,11.315171981854247,12.70068059775631,8.29268652585764,8.517328170391815,7.450494738317962,10.173846941425579,8.223920220187326,8.073514922092901,9.453377901922885,18.603070287878154,12.297081047247275,12.187674831884257,16.421725776367428,13.850693584903969,19.46577544139336,14.562535173217526,10.355776994208286,15.058318350501871,15.1560114099054,24.328844185200854,15.321031646115657,15.756378749026084,12.050803636074502,11.309473687942937,16.08416009369388,13.336910210958212,16.606692565526313,13.34083003733451,16.537678971021762,12.556085364269464,17.096755713857167,12.600278129953958,13.396746460490505,15.868228478854476,12.810892199209851,16.27320493190822,17.947825225104626,16.56820541453625,12.768337516271282,13.83451836907269,12.025843395572625,16.302140692109255,11.48331876277545,15.450256148296411,16.705026786406098,18.513313010186604,12.534934562419561,17.04438869292561,13.063841067914097,15.491877705961901,16.66776743432752,13.036430768565495,15.443899998225646,15.72947833413522,13.968316051970042,1.677623812086245,0.7435999775091275,0.376401646892643,0.5859499723528456,3.221604270820226,0.3412061459834126,0.5954051224860484,3.2233786664813193,3.70191567239058,2.216367372444293,0.9589629692356394,1.1273396675853098,1.8178266774179335,1.9251110061205887,2.138177913163582,2.2847711500746035,1.8431836954649121,0.07762214118081845,1.464287589620521,3.5671665171446243,0.9157442104033588,2.504208235782266,1.490508490357433,-0.3225120766206748,1.8012790995811034,1.369462149874395,1.7728194598200178,3.1370294018611036,1.3997714589279155,1.5606008766597679,4.374957234731955,1.4159437487667041,0.6206522950781355,2.2707517098262526,2.7028324910639183,1.648135423129756,1.4297428566691845,1.0930950616187607,2.6427983667249846,1.4407027629354117,1.8035932185060028,2.345871980272352,2.0849196278573983,0.23054533553776446,2.9920853634651614,1.233180862614014,1.830771270920927,1.5869277615746622,2.0414409763788735,2.71869644243755,6.079920492045668,2.279117105108365,2.258802175477353,2.3946241784220703,4.28657549766975,8.03928195304141,6.753384689119658,3.028356746302279,4.481662725341758,3.3897996565317703,3.5638830935567345,3.231167490442262,3.522150008136701,4.712497243661722,6.1349168152970694,3.8233887190627422,2.4918605958047486,6.161924880076015,8.05268562275839,5.322626711288601,10.86123000875172,5.87108413536563,4.409848383129436,7.845425580288296,6.2429145223300555,5.076913278867265,5.298958795054972,5.333361385153507,5.666398455194445,8.501317391860931,4.237398936347742,7.348383063900208,6.129752830409727,13.359898105593942,5.367836647021864,7.326967389181791,4.227859160867791,3.3645074540386064,5.772754251422569,4.108694216653772,3.438466026461281,6.831410625710038,7.170636218081864,5.517225764788073,4.333146896221882,7.893732184668501,3.0067938658677003,3.1310189583196584,4.672937597166553,4.815272265742416,1.3731404046645652,2.3448065648770813,4.575023214077221,5.801386332931413,2.2133987819974843,3.427049186262483,5.524915600389431,0.676947807571771,7.495245850317572,3.039540148349503
P07,2.877355655466028,4.388957869432202,0.7082855992995141,3.0534474051513305,1.740678225564607,3.026931645880545,1.87969107657519,2.2575115356553015,3.234995895947675,3.11160798565889,2.001550072794343,10.388028500572476,2.806660350631197,13.531137122437162,15.068888720621043,13.371309437113307,15.906848449107454,6.427851145823967,11.43566509409698,17.62704840838966,11.963487748026674,12.364097619015872,7.193222889498019,13.985265825314169,12.432716933028008,2.385992621100474,3.697860380634512,3.050497959230718,4.756146136320065,2.8380675453539705,7.333381285716889,2.6992068755480574,3.3435388242227138,2.1911242223692193,3.91557306575546,4.235587888524663,1.7986736761855786,4.901260576030992,3.4284062713933174,3.459471190329519,4.49931414860792,3.070286545358462,1.6361806603286855,12.28953831278202,14.373778928837336,16.67166485626557,9.69682062609151,15.589398364450958,13.491397526261327,23.327941046250416,15.378054270011205,17.839519796184508,18.727212775330564,15.238330662391416,11.881638806350098,8.07524607089461,6.766533092312722,6.754545629373245,10.540160511366574,13.211119199091293,17.02978705590834,9.791919346097702,13.965451253665584,16.923488985202923,19.82357242562369,33.35464350689335,10.771344241822002,2.9110421522999212,15.656177661231133,14.498152788225653,12.861173799331342,23.58203340622034,5.991378653662375,27.838757934338712,6.281965026330287,8.380645000483462,10.514860652059177,5.441102377031335,8.135480175020856,9.760232822859725,5.923860961765376,8.491796574606282,9.677255902629541,8.718779017473713,7.623944994743688,7.247553766526227,7.212309079796375,27.106664047779972,8.258425749940455,5.902594963899569,4.297234311498773,16.079079067603427,21.561175954556052,8.318440368405593,10.828470082902028,1.4212471489831682,1.4826786701876475,15.03723248064609,0.026452359587148866,1.162131607776078,-0.6138991333935113,28.05298130189135,1.9251948154725893,8.214256768771088,4.8702105356022,3.7343613124173665,4.6532627239771625,6.423999271913546,11.422841313714486,10.521079980021838,21.13904056429155,19.654651993966564,20.446915418774523,20.158754190106986,19.04143184575431,21.465357594931383,31.917470736970188,14.864448744947847,13.644648599246658,18.35741690244007,15.86841253054353,12.556961456371663,19.099190788401938,38.50319779113821,35.208502788523376,32.80167823241519,31.32440854912685,36.5311417238322,28.763883442346216,17.499626808629202,23.04565610913817,42.73906438438492,31.86455982838627,40.481963205545256,44.10396380200297,45.04398951660689,41.392070702125025,38.2144415367557,44.242206649209386,68.81138862464357,62.84868710892012,29.01178958395068,34.15049458335301,37.14622169847457,37.305133357980836,62.65621356913353,57.147677732846844,29.37870928836537,24.1186645104733,42.05833947176823,34.22467035383738,39.50532086784811,28.573246373760313,28.119736819740453,29.12556575857895,31.92410370892125,26.905091895375353,68.07689646780037,32.77066288197887,23.77307308229992,22.40649675369268,35.83220428442293,20.123256249165,26.062770194201995,27.428670744942707,7.855152915160684,7.273115698767594,4.324876901255902,4.01501200273836,6.731053026322559,8.12247968863257,7.188928033234157,6.136918426058777,13.826427249478332,8.800523817993204,10.519477520487754,4.078075442801256,4.775624120999649,8.43921130044347,4.6630941657225025,2.567026854088314,9.613322035715038,9.727694270815832,3.902731146060689,5.785224415697453,3.0798627903840554,6.111100942541803,11.957267270936933,7.16081427697536,9.529357685247483,8.624288425654372,8.706404060778143,6.373337513194658,8.263771526842362,12.204428313896258,4.908748528442548,1.6731784853742715,4.345979262121328,10.565386591367508,9.959273351925365,5.152079153277423,10.685061725089161,11.44394126135589,15.978258523544891,9.181734165846517,7.162156866515957,10.35820096097819,5.921370804944743,1.6025570288088993,3.2966027819421546,4.702191999713299,-0.5278576856820765,1.1381389227293512,2.5271609622025695,15.745151290769002,8.27527585590988,6.496552769764593,5.695739932223876,2.6059758305777896,1.1766283134599398,6.368423817199384,3.653734286559069,6.417037193352092,5.361831279938755,12.257379790092202,3.5530392950782783,4.868227278960412,3.887400971158579,10.700137951758093,4.1684113177918825,4.080219461357753,3.65203999712712,4.375247682782006,8.618310835800651,3.436557001000132,4.902996824870054,4.256972275504617,4.216511033475463,4.834665919693649,5.198571399479684,4.052823287577871,5.8464827423142935,3.198171873199482,3.2878532533151725,1.4810406549787043,4.748700288953786,12.909536004126283,6.056236470888345,4.557494038402794,5.474200076344767,5.407705118522545,6.527595460256212,4.75877190434571,5.278642105739893,4.518906541607564,5.605489457790375,7.379362366729829,9.044691628400502,6.500629234728468,8.895208196246307,9.529146407660988,8.893518094002014,8.099743664138838,25.660511094389125,7.221560690291307,10.0044322217672,7.712127429150838,28.425009786963205,3.8494041080340367,5.6060410451397775,8.749236431166565,6.270193532402237,8.46913401567608,4.78402336177042,5.405938778067826
P08,19.297619197529045,34.78310422096551,36.53807565527161,33.52363154061223,20.551002634075747,22.9548339795223,28.337916393196622,25.53691097161739,18.96893508708343,19.92520953019684,18.868079988671443,15.930041727747891,12.793420252484953,17.6883080807907,11.93993634288826,16.77520611313205,24.78211537010408,26.047984736723222,18.363050974693895,22.86600648951104,43.85089242877426,17.620444121123345,24.4136128877844,33.352686029081745,17.548050594643335,42.7029714075955,36.73276503578121,18.93636269417156,21.4156497779162,19.13835873292021,21.986642812711942,17.62661294969877,18.25043582941218,24.586437976867185,25.444321419078324,41.74884199718896,22.738273429231672,38.5502752286977,19.543657940707593,43.42659111263214,60.67657564353421,22.966039645239224,35.458017328958185,31.303420043120376,46.60690904415127,27.54057287793705,43.65479965411942,47.073899026117665,36.88276134111763,4.483431910623714,42.3042445881297,20.634247655790556,32.13358368365976,56.79489752797269,49.50004511466781,27.36592855728293,23.515815962532077,19.827555953705264,18.575446620191105,25.658949530218646,18.71759950692472,23.420149717823037,24.388029380066886,20.20264522060828,27.178276923373705,14.924282946226072,10.64353514001474,11.612636417281946,11.736754619041868,14.591316098887102,14.946280512133534,15.30986628652164,20.30001613656007,10.915599379845409,13.380424907129353,11.24925985583867,15.236316669525998,18.360785105987706,10.632738941609828,20.450645148872955,16.09137937868377,9.352955703954942,9.284959337080807,15.988793030771,18.015682872059525,21.38542691273028,14.41584343990207,19.94495928356727,21.53391348180518,11.312759663282577,12.20218275646213,15.576736408871383,10.518774480057436,18.207348466590012,7.801097176335347,16.32623965036256,8.538718160526031,23.027178364228295,14.319646866884984,12.951400642493379,11.776550810200483,13.028802079254227,9.986677483886389,18.499854174914116,10.014457921173253,18.596692498809,11.26058703327288,9.87671482014145,15.93087391665664,28.368569723804526,16.61086196918548,14.422192238488588,13.328988209589134,14.749740437674145,13.240595734482646,13.847450700135045,9.384817009633375,15.759735662101544,27.084367652961593,26.559075055467588,12.407947624936213,14.938520487803157,10.52225786755114,14.615450893545692,10.805903588515829,12.896428213342853,15.525464370840265,14.417912434700142,13.088091035615374,19.00317844623262,12.972109862498623,9.52371102826814,30.74955195368134,9.797418409612572,10.526735275108162,9.196634756577877,11.55947018412259,8.323728856845278,12.559445617460913,8.644785992458718,13.076148522869438,7.9830191440535785,10.09456815163633,8.957583094092117,11.196161536250674,10.473365442166171,12.515123292405342,12.55117185550975,10.843272166210378,19.16378250502441,16.94747991088675,13.201438479869406,7.9880251290706585,10.772184278293707,14.183025616829482,17.766425242076586,12.043938442237932,22.1477500590883,20.532560537550196,15.127913794753788,15.539627092192173,9.294494702585288,14.76479670881644,11.862371479722407,12.216858321230212,45.98268670168135,40.858078289689,52.11895477006688,59.17200983388368,43.98476124114819,56.94143433402334,56.652805923249495,62.61832420290506,34.20711484753642,69.01539753808945,56.84870376139575,60.650770110668525,34.248674482322585,56.982669681758196,46.52258294674913,83.90282629953182,51.94138955075127,43.47986053846866,43.263588762706014,62.0070483941459,51.638535674040035,44.80113857579733,75.79576134098794,53.37951812120281,86.20434229133782,45.57890900997491,46.28653045708439,41.65946741754593,37.94149743989394,39.37069913499822,62.066714631679005,40.642494033162656,45.4680782267989,40.9186524779275,40.47537390032216,45.09618983051253,67.77074519479612,45.1046815735008,40.99394635349001,46.57506669524368,60.110557338050135,47.11449407608298,37.61628563987989,56.300246513308345,42.17822892179944,53.29628352627538,41.76460977673656,42.35799067450486,39.24357637088397,48.64033291464499,55.58850345763575,53.87481962637789,39.88011303028913,50.146323728114545,62.08606804654576,62.54585010503868,48.838700057506834,4.816548359618466,67.38070575664003,2.6681872421479618,88.29478276092894,3.091934354071266,2.8533803758252247,74.69627795637082,66.78445777693348,46.87327719432232,72.49000998063859,54.526602124391935,1.017189582535921,56.091966077784754,70.39044975205243,1.8155957823595639,51.95226359434612,0.2780515319173764,2.9411358416336277,74.68413975953679,50.62353585778603,56.62342548782849,48.01376391898371,34.827979675905965,37.01272731060349,34.850337689344315,49.47886686818422,38.79405719274008,34.83703344394332,45.86742917415511,27.490305550577084,48.45985507396216,34.24719017546089,46.510663767374375,34.96146702443738,23.04760824440293,43.78555951902357,46.023074493931134,29.5549994413634,32.606718510662795,45.38548950614404,33.11623323879911,25.413583152221616,33.21037473925012,35.16071257078385,31.82021300659605,36.69020756761575,41.5419146188419,29.814498383566928,33.0023548240499,37.48452143401917,55.47373441657886,48.53356602463886,30.35196783875702
P09,21.35638033462005,36.26727487197679,14.367141878959217,21.85829933422737,19.735425403286307,13.401424425939126,10.113937598828626,13.441396040613704,17.575911580792784,12.022613002266342,13.89662488037909,19.376739324945156,17.647113103599715,19.08808220313018,12.377869868614315,24.080865038794197,20.172302132155252,16.66605757650093,11.170948048485226,10.794657471282997,11.15710024715536,10.61466359628799,11.601308280358674,27.481594910500434,7.668507504082331,12.30285875088968,11.015115971227267,18.607030997405815,12.464799589145107,10.826916280116686,10.36985124271523,20.945740070773255,9.343523373127091,8.278257844687237,10.55324264046365,7.889247722324361,9.417524360715804,9.572063405250772,12.08354432063724,13.693846730565895,12.262463999817856,8.58480043957766,11.002856831428751,15.879517923448027,12.749927652088594,14.992150530252324,8.456923313873618,8.93870441162994,7.453036764995298,9.268747020522094,7.193929919067912,8.800179590413935,7.023464680490033,7.091562731972168,6.26316231425278,24.515203500178558,29.52387328256585,23.17778635180394,37.77511255135561,23.924093144546088,26.081503991557884,34.42290681662858,23.846839886173974,19.89274069209624,17.46703128031209,18.41188574479743,21.891868336999586,19.668549315053728,20.76318088130528,21.53106197864284,29.175859367098916,16.346707484527286,19.236116322974436,17.268801857749175,82.72159565122091,25.78126785771988,13.358981853894178,19.338997134748784,20.822985440852253,28.50746872727766,17.222735711786896,14.424969707534569,24.92682005699273,21.81667309127519,16.49629176560873,13.139530484187702,12.038979594741358,31.877757642246472,15.888058944931565,13.285701580560207,20.871634241715043,18.591974781067226,14.696049620293078,16.76662201245285,15.961000972832611,15.48788825256316,10.65032141255249,18.47078538500262,19.613025361509788,11.752754952134776,12.81711118524672,11.725804799677745,17.24790021399943,17.653963310587276,12.91845272811687,14.949564001621255,16.69195232199091,7.843602813120514,14.979363474155491,46.621068177963245,5.6840453113317615,10.597437682747714,9.941509169347906,8.678196613037718,5.937459087609513,5.498700725995802,11.701708704647935,4.944614194823206,8.49666251949752,11.013161093988897,5.99526548405515,5.252114826704361,6.472809573755086,5.3391823713294215,5.367036323913091,6.3593069318106075,2.645593635461924,7.621534709415634,3.4758491689808375,8.27762158607795,5.153763460003539,5.667324846185675,4.794114152072797,15.476654457845186,3.5568545811519385,4.571589190828805,6.556971729999763,10.376414386775417,11.503587225332957,3.7829288261054943,4.12022718904167,2.9477120129516248,6.565426733344285,4.003060348342661,4.237084820982881,5.408302751748437,12.650933836506132,6.7630702915718075,4.958604610545609,6.513682033522532,6.7105979081031535,5.46454278966195,4.366139960678238,17.573061503534902,5.8327563735970305,4.526954513803137,7.443438064082166,9.796303218302084,3.02139127954219,6.130178504486407,5.62703222167187,7.406372198232209,6.408769596636111,6.623674695479833,4.018187775583204,4.206403610347693,2.26940446345872,3.809584250902592,11.483907516799736,17.118509973377396,16.99923642698943,10.997813298219898,15.493564042014693,11.315366131732626,11.61122719193471,0.8497298023367641,4.522149546792047,0.7228298754030855,4.9687803408416436,0.16468036354652682,16.062762709767,12.838600386125188,13.557663467888169,15.02901067811785,16.052769262826757,8.007209276605412,10.472412328365415,12.514919052048228,12.984778327611915,28.76337567187617,10.637076145065167,9.348301292353975,12.521371835878172,12.478858653201774,11.445684386801513,11.871814618338291,9.873748912967011,9.472840465743202,13.995728784050602,8.296771351265695,8.724077554624358,2.796295524409242,2.3826641202505003,8.211578660704532,10.702401245758317,8.175989618152654,24.621095347258294,11.053701054657209,7.698265924332956,12.27076006379189,9.660066434544854,13.44664131670785,9.841516918476046,10.327336792009422,12.158102624867102,10.590478012468678,7.091374811159264,9.329960820605782,7.720509501563516,11.450881676316714,4.106156184281897,3.8711847487692,6.227303135234241,4.57154836834407,4.91676230490323,8.68979035609857,10.610699860747458,8.226477895978217,3.9471019751718996,3.783049895401364,6.945831180104481,9.796655991746691,4.72690542623169,4.087097888614034,5.088053210444496,5.363586959504614,3.302825514266151,4.809591834442339,9.101126506360973,14.001101821667085,3.597755306708197,8.10534816871248,7.198571718559053,5.550378758972018,7.37828267138986,6.514687284949471,3.6948816345760056,5.13494375741892,16.240133911120434,7.91973139982804,8.268556369154139,4.52633942909852,5.653880293147328,7.160818463788621,3.62255226543978,4.479693320568664,6.4809252970723605,8.757103077226699,7.326673879263879,10.929209283605115,7.325398623456415,5.546761712881413,4.349903944662708,15.687737639901538,4.053390597417634,4.866865367743749,4.023019889608969,4.885162396631373,5.193782612680893,7.201076772360587,9.488883590059375,7.40474026818228,4.1565827782553395,4.793130833912088,24.4241224149374
P10,0.3989299089834577,19.970806854738846,43.22749191343111,52.03502289456212,32.922928679933705,34.71828791588484,51.42432399603285,20.342072832458516,9.57981725732465,10.79916350586744,7.0702865093829725,10.2957225406526,11.945903745764838,21.350916859175655,15.621333430940524,8.987739553961841,5.761093074175173,9.401458650576247,10.445850815960215,9.233881037554958,6.956372278522858,6.4649275902578935,6.357297294265928,18.65873921117477,7.61492822272109,9.267570640711567,11.612436672885972,8.038093141792,8.538311654632837,14.05020850956139,11.306405176912971,10.181250941749635,9.334600487093944,8.273286323155066,7.479055008702732,13.46332654768851,6.894701687888686,7.503112079812537,9.448194575201569,5.286248171404198,11.174533612853812,8.870410853112528,10.898259266404313,8.638265929334269,11.681483954425245,9.863585875164814,9.735133137054824,6.652817095886629,8.727995650127276,7.261723226040887,15.621926555721732,8.601777171639599,10.421067579982703,8.372451749234434,8.08117127152044,25.421622808911415,22.533338393040502,25.734391909542463,28.00668651765944,33.97325711771104,22.21180105739263,26.71418239072687,30.249318696883606,23.01767548745899,41.815976365182706,37.35827873772787,17.06734331277036,24.231806300366102,24.663937177414578,25.914557668771536,18.60168972682999,24.517284255787484,18.034990839021372,24.699406765797317,24.940314584843673,21.085363623534583,28.4895886274578,18.67783281618782,21.60888605387164,19.13723573559556,27.53423305163818,25.83212808602534,24.60790906996517,20.647624298873563,22.46187152422964,18.78679948201607,22.57392436421333,23.974999736591986,22.707633804304205,25.298782708023264,24.0586117834992,25.15452158620668,26.216191575725045,29.154376487191477,18.127333293999044,29.341605620689933,19.65937771899381,26.648154841961738,21.36995389528001,25.20977993006659,21.783804998210954,26.606845960989837,23.238498503114936,29.448725965293157,24.538999631115974,29.282480457854618,22.224857709484915,33.954247727237316,29.573135725489742,18.721556015176812,38.23048750566541,44.926126118738814,33.318549233760194,37.466110142678545,33.29889438282292,43.72517394841653,45.11424063706923,45.022196318517025,41.03521446696105,38.610296327168086,36.85079383350722,59.59980916088238,46.86646062107936,42.944592085153104,52.75428468389504,56.414319215757104,50.80582578010434,57.44341767945067,51.76377789923359,46.825556367034686,37.5705024748974,28.936915123179457,29.351256887466555,38.93297895566408,35.77377672414776,35.8989165191743,38.11159405064481,34.31966242559369,70.25998049407222,39.6972647373792,51.95733822623082,29.583853088107638,39.40520303524899,34.7607681986761,36.78613745635485,34.66178331924287,32.002076863512414,47.76216818684762,41.57616078948826,35.55110212784423,48.21490285873897,29.091074556774956,35.587590941753156,32.00779010800804,53.879582048388535,44.45065611824181,43.33634437475988,46.56256396928303,36.31431586676223,34.64378624477788,46.43829006919289,48.887975614747575,31.00063816516912,45.704216601302335,47.36565075964441,11.066844107533992,10.828278254162292,14.83447249437653,8.256898853104579,13.870221094713465,8.599046683509439,9.648717371759874,10.602316048809769,13.883916056479027,11.036343078941652,11.924188330479334,9.152665933493832,9.20195824977126,19.13219591868531,8.213728746451856,15.786514026130288,15.617685212309105,11.227460491066896,12.223430915487382,15.467803219643748,9.990120274262738,13.961040476262003,14.86137276571192,13.22704307622827,14.876496477395143,17.179844110632537,5.88190784954984,10.250643123843398,9.164740792890921,13.914882999687006,8.159402230484384,11.773426375843783,5.275797882597988,7.2698162747969945,6.397430673935464,8.028806635142638,7.844829682706202,12.352733010992234,12.236093612602016,8.615583087286936,9.343226006558531,8.399723537554854,7.911775099999556,3.7656036154452543,9.5407981738986,5.40802710330002,4.649363874334105,5.428381559235026,8.444277117781397,7.341523610632709,4.3908452943575345,7.665611934532082,7.637973464630475,13.138109524337523,6.582128338941425,1.9009547364564252,5.19446527516992,4.666361674238418,3.2615289408170742,6.759938736397579,2.5991166499043743,2.5753744457061885,3.6732131883627313,4.6036002685528965,8.986752618251549,4.229096230205034,19.18943713186579,3.874012588355362,6.865950556348544,4.176151225234038,5.259760607052781,4.934426631412567,5.593902085990553,10.635058669169092,4.595783549660646,8.007980125798426,7.380215844873835,4.593250679897344,6.431011119120678,7.709237763410604,13.268037546205228,6.748805555101018,8.163736573135353,19.94241514118432,5.143261401460856,7.3449779509935595,5.606059737724475,11.989399508330296,4.878279940640474,11.627828921971563,4.096624497814552,11.501220394316382,12.60356116361709,7.003350730028542,8.87147378762627,8.69047832642122,8.95229659001752,6.188100941980146,5.002990558933169,10.84784708585346,3.958164694976108,2.9832282929380165,2.6762674946091316,6.539381037450202,2.5118933355032755,4.775861068033861,8.02919426849562,4.866230195165235,6.469196950767655,5.648494084674782
P11,11.196584621090379,18.657119750138435,0.8957747223087833,1.4857528815772243,0.14313484507589402,0.17977905259476445,0.3528642244057276,1.1724995371670435,0.9602837687400227,2.301505846518686,1.2249532441154303,1.4117596757054605,1.3846865100569739,1.292233170059749,2.2414808511959388,2.5341559921781958,3.055303470250644,0.620616752929025,3.2624430778676947,1.6363880672958748,1.887757066758052,4.250166913255946,4.329093366077078,2.3916929175267674,2.890178496998982,2.7424766664624247,8.046003976480556,6.937847520433133,2.31799276708992,4.322092310387862,7.409633107903812,7.93036915360949,8.673601677879914,14.860805854735048,7.101898875439671,6.424215193520277,8.988461180959929,8.4120119353081,6.578600334179866,9.203260765560021,6.550458898636364,7.942906488830646,7.667849575047905,6.220111891287491,3.841744796340997,8.274932485857326,6.838043957639387,8.870810590193583,7.0166371176801725,7.555226557712746,6.911228338885049,9.756240185599495,7.551439308571425,6.950036691813603,8.620767395687125,4.0934654681175076,5.113999271854281,7.14909476825231,6.916501952176182,10.811606397347234,26.70762335466549,11.225894116427032,7.109594200421064,16.37660820385926,3.773205171116751,13.832956050313499,3.2833038766315603,12.174877992029929,8.692989189160027,21.193818154946108,10.199757980371105,9.013377213550536,12.424526631404447,6.669980308614088,7.968069689839124,8.030733404446485,6.769068829127617,7.912110626218958,7.758134072544745,8.544322381677663,8.058708582942227,4.881509432435043,6.789201334461184,8.667512732456544,8.7922979509068,7.385146956717431,6.004688902275387,10.814596903238453,9.136581288409667,11.665692121267702,8.983105714825669,8.728219862406764,11.474659535840232,10.638883252444652,13.104421934044584,7.493754088905762,15.549183343582715,7.208073996084227,4.8473003811816735,4.574689129374417,3.643060576374575,2.484348627639398,2.9848353777728995,6.1292383321368025,3.851504824205918,7.789952408722874,7.314731363309672,7.826423262805051,6.71327690938668,7.059919982292255,59.44283277242622,62.35745528273246,45.50388514457356,42.823395562061904,48.07605085649581,38.41178162573495,53.73660044913535,39.214191926512285,43.97871609940765,61.68270736013501,42.60519812685482,36.131345306143714,42.46834910750073,48.7373366904981,47.04864716250746,39.16672807839397,62.625846791056944,34.661403577899996,79.94113552252136,38.50549463831901,37.03807196771063,43.76887735322187,43.74502395510716,44.94992019131973,55.060842346290876,57.381008930241656,40.53643842958791,91.46402569878771,51.854491290348435,83.00293589204645,72.16214779712656,67.83091352829899,69.49818796780148,78.19142578755795,77.03360055145558,72.77206510549324,57.439382100955264,58.337504342404436,64.42076200138649,56.76734119374591,56.238477403384955,48.10000845909862,69.29925821355565,45.67234171425235,59.60221568743264,47.687811727670315,55.34591114406277,53.04562660563028,51.14070374829338,80.31053826216596,48.33286880814479,56.64030435306362,44.121992949367545,52.72194644905073,39.54107843403983,37.849700104493415,45.99155840940478,42.313096918429274,39.901063108160756,43.66669800356049,42.38762594230684,40.7084140165135,40.558374060416526,41.58831874329687,65.33278047049168,49.621146087664414,27.197935923147504,47.20051226107014,55.95958160991795,36.52109829622007,36.65788201488145,37.08170891864102,37.41157243468986,40.795074412321945,46.89827372714735,40.56837285166796,30.839852545055592,39.048089404291666,26.686567231745627,25.508835333250502,28.904266483144966,34.475844150452474,42.07875640108842,31.36435118435282,31.233918481610495,38.18051046603185,34.359975837032714,39.030006177963514,42.9049597672575,36.273138350331685,34.29914319538581,38.321709459902856,44.35232336217247,45.35719912461448,4.310694869025333,2.7575428480235784,3.9591215145768404,3.799493318238162,4.259280659823595,3.3191777856435465,3.5045093079302774,5.68463290458736,2.9301156003986444,4.9862464496714,2.3778361102704872,36.58843455820033,40.052713128885365,36.95983072215417,22.957770165645314,33.414094737824556,4.514057975700614,5.783867178823236,3.8580980209243627,5.256799478045329,3.7059087670765534,6.849212526224996,2.7097776714270836,5.039071879438808,6.690097118358107,10.335751299002094,9.051914962528976,11.187760572529458,8.134856710148846,9.031663771066311,28.09648790386736,12.810748811367818,10.078679187143452,7.064279894580686,5.0433503471017715,6.219159358895855,8.635829676618899,6.29179594018993,7.66812541021701,6.501788240165256,7.26673012200493,5.61542529443385,5.346911609102474,5.946992864267484,4.482096325779706,5.8229613955153905,7.245616809908437,5.864334119980255,7.033631405136909,4.5671678026430875,4.458357887747553,13.926447119661265,8.476045756736447,8.444533007161708,10.21448851267666,6.675944437293408,5.374426220283711,6.671167892115054,9.754908500422253,9.629513169226982,9.69945446100988,9.701451171100183,7.680396200037627,6.067269493269226,10.101129365654321,7.270637290669606,9.797466735047532,9.385400260391732,6.206647255325702,8.142305406885338,11.895179356203235
P12,2.440140574452002,1.293885985468382,0.9708088274697788,0.6404112279181309,0.3816897386710485,3.0607229866342838,1.8750350491078933,0.9913349536174518,1.5434418832917247,0.35034422776509944,0.8738319600542681,0.5286984578903824,0.21769436804063824,1.4009499764469462,3.2203591337518818,1.8522424795559314,1.9144823412068606,0.9016772602828484,1.8416610698261051,0.7535995373814979,1.852135423630191,3.3466824474330936,2.992172077528102,1.828356979085413,5.37111991977112,1.1852290272927792,0.705099328313052,0.3224089787186948,3.8444133185402922,1.810881427495893,2.90040228771863,0.5784852874866679,0.7148956215901321,1.6041250260153586,1.740709195765917,1.8050755674775534,1.3634740537716326,1.0188682584573066,0.7107784167234179,2.6287854527780103,2.2300221093412462,1.673460544658683,2.278730673934465,1.4460326648032078,1.3346804147990783,0.7716602749547734,0.5767238620089663,2.6652289836877188,0.9553182543195908,2.408114710971641,0.993330260506986,1.194804602783944,6.0585527792337555,2.6133833706867575,1.741660839186352,12.798560032465438,13.710046711975874,11.104337433627334,7.3484534774624155,12.542001048237866,18.725440627556306,12.090889257930792,11.199276462990087,12.060582767007276,7.263468391287642,12.829240794242214,10.774776857343827,11.471605512160888,12.703835921908944,11.90475241964889,11.657284833910392,42.44487182700011,25.213571408150276,20.052810344791943,14.615760151510163,18.431277468804012,15.922785442232797,17.925728039376068,15.970328119929956,22.32898406303649,13.36440215751852,21.782990467864433,26.78171865318497,25.933703894846122,23.025958174699685,30.41058210397452,12.39174625216586,26.256712274333267,26.670283325761872,18.177266771161673,29.16316490934578,45.86415111884246,23.58005001680812,18.942341142308955,21.43814855192823,15.488806381392187,23.65776452622707,21.28757681844856,18.19416665968368,20.351097601384048,18.820632335533954,10.536540782991741,15.793922338848063,15.579867827645842,21.422666658300773,24.901455218325104,22.15306771089715,23.348168033924726,32.123899391998364,23.50051491153717,80.81071793849392,81.83276439682678,79.23490338513292,84.79379855048407,70.31027738173047,85.9671030386663,79.1998469819463,67.27440062673179,69.45384555051525,74.72037645723441,64.49022070389083,78.66004211877839,70.80439391619034,79.95082259586084,71.32696985535446,73.4603405481313,57.651588886755064,68.21719893196293,60.88268597521857,80.71032167347089,72.32100082780012,81.9810275347892,73.56150601898929,76.1797265810511,70.26324761859387,68.90809437065528,65.59335251516343,67.5385570807803,56.30694274514325,63.977293673416256,63.29163837789774,58.65136023371493,73.47933253094779,63.91640622152511,77.44558327990472,60.645501110027126,59.00042355922705,65.9560681575454,62.8820001809285,53.716759463549714,81.26904928034229,67.16508558003179,65.38369820358238,60.158663190330174,69.2560648335548,64.85565493576013,80.31773529983312,63.81007228005291,64.616879733514,68.89666435259836,57.566146299702716,55.656164924440375,54.808787198183076,59.756560603240565,56.48146265222372,7.905692323406496,8.344723350841534,6.72502356669467,5.110608026379493,5.6471165926918125,6.325830889497611,9.068607454852096,6.051935839084182,4.885273377330849,3.403636998716328,5.791098165658884,3.6025027289570826,5.575677486782087,5.022939035300359,4.823291559882931,5.802234896854198,9.284492802282106,10.471734866908864,10.454609843605429,10.908549287242328,4.798023619874584,5.742037335668114,7.0747913759048515,4.727766739799424,10.584133384071093,7.356245305489974,6.543845415210615,10.232535641278163,6.07754215172092,9.635028921671923,9.479322233892471,10.94898596431409,12.0322265364549,8.097990098272406,10.291737737713394,5.78791856011018,9.794834398756548,9.240599080692347,11.818645333496017,12.89062143480535,8.67297236104059,9.433954544044186,9.39760388073337,9.883144047322027,7.658911635063941,7.385521912966512,8.303843813571133,8.836436581376566,7.196594546392809,7.353376373487416,6.530971589687763,9.980263626957594,9.938070001062313,5.582587900049136,5.3045516299271345,29.696388194410346,27.938573082000623,26.825929047573755,26.05278868155575,29.601970091194232,26.94475819657905,30.956350227182753,30.938600158333074,26.263816043777243,32.33687891516597,25.146917188528683,24.735149449724947,26.36109844203338,37.870491432526514,25.267779029252893,29.998095128028012,45.70500051990327,40.68082079909518,40.85957737238183,36.59858987107506,36.656834028388,34.412096570302275,28.073364073487934,29.733459479086747,32.4720523713063,34.50958620272111,26.861145988156437,26.51381329227915,31.8496257026923,33.67208338775728,30.8506232183694,26.4996991876844,31.91592038491889,42.66381112109285,29.529266634233103,28.255836098512912,57.660007526464646,39.689046082248815,32.700660659284786,27.18767753270153,32.48766313041623,31.3318651827529,40.09453782265499,28.962072782625192,30.61206841875159,32.23238317867055,36.211437656431094,33.42185430396784,38.43833980819653,38.41856543941935,34.43783247670852,42.66359535947243,33.56179820312384,32.68451101049595,25.924901619060815
