,F01S01,F01S02,F01S03,F01S04,F01S05,F01S06,F01S07,F01S08,F01S09,F01S10,F01S11,F01S12,F01S13,F01S14,F01S15,F01S16,F01S17,F01S18,F01S19,F01S20,F01S21,F01S22,F01S23,F01S24,F01S25,F01S26,F01S27,F01S28,F01S29,F01S30,F01S31,F01S32,F01S33,F01S34,F01S35,F01S36,F01S37,F01S38,F01S39,F01S40,F01S41,F01S42,F01S43,F01S44,F01S45,F01S46,F01S47,F01S48,F01S49,F01S50,F01S51,F01S52,F01S53,F01S54,F01S55,F02S01,F02S02,F02S03,F02S04,F02S05,F02S06,F02S07,F02S08,F02S09,F02S10,F02S11,F02S12,F02S13,F02S14,F02S15,F02S16,F02S17,F02S18,F02S19,F02S20,F02S21,F02S22,F02S23,F02S24,F02S25,F02S26,F02S27,F02S28,F02S29,F02S30,F02S31,F02S32,F02S33,F02S34,F02S35,F02S36,F02S37,F02S38,F02S39,F02S40,F02S41,F02S42,F02S43,F02S44,F02S45,F02S46,F02S47,F02S48,F02S49,F02S50,F02S51,F02S52,F02S53,F02S54,F02S55,F03S01,F03S02,F03S03,F03S04,F03S05,F03S06,F03S07,F03S08,F03S09,F03S10,F03S11,F03S12,F03S13,F03S14,F03S15,F03S16,F03S17,F03S18,F03S19,F03S20,F03S21,F03S22,F03S23,F03S24,F03S25,F03S26,F03S27,F03S28,F03S29,F03S30,F03S31,F03S32,F03S33,F03S34,F03S35,F03S36,F03S37,F03S38,F03S39,F03S40,F03S41,F03S42,F03S43,F03S44,F03S45,F03S46,F03S47,F03S48,F03S49,F03S50,F03S51,F03S52,F03S53,F03S54,F03S55,F04S01,F04S02,F04S03,F04S04,F04S05,F04S06,F04S07,F04S08,F04S09,F04S10,F04S11,F04S12,F04S13,F04S14,F04S15,F04S16,F04S17,F04S18,F04S19,F04S20,F04S21,F04S22,F04S23,F04S24,F04S25,F04S26,F04S27,F04S28,F04S29,F04S30,F04S31,F04S32,F04S33,F04S34,F04S35,F04S36,F04S37,F04S38,F04S39,F04S40,F04S41,F04S42,F04S43,F04S44,F04S45,F04S46,F04S47,F04S48,F04S49,F04S50,F04S51,F04S52,F04S53,F04S54,F04S55,F05S01,F05S02,F05S03,F05S04,F05S05,F05S06,F05S07,F05S08,F05S09,F05S10,F05S11,F05S12,F05S13,F05S14,F05S15,F05S16,F05S17,F05S18,F05S19,F05S20,F05S21,F05S22,F05S23,F05S24,F05S25,F05S26,F05S27,F05S28,F05S29,F05S30,F05S31,F05S32,F05S33,F05S34,F05S35,F05S36,F05S37,F05S38,F05S39,F05S40,F05S41,F05S42,F05S43,F05S44,F05S45,F05S46,F05S47,F05S48,F05S49,F05S50,F05S51,F05S52,F05S53,F05S54,F05S55
P01,23.69833209970311,22.706170115890924,23.23813601687667,22.245518248326793,23.750161335588622,17.587658677590394,19.955883618557728,20.66581718158378,20.073117964301282,18.700082720046485,17.059566946874988,20.630021801649026,19.841856044004324,22.573211196697176,19.436549466016437,23.512192868437136,21.239666444357663,21.345717786001547,20.73643125987252,19.68459403147607,23.293285970136754,20.245502263304925,21.826098621496968,20.54812705110254,22.276446498384107,22.526249090689102,21.64788678906147,22.13899484391888,21.89921951584299,22.572739133933144,20.770452334935563,19.547614439774872,20.821093274897827,22.09880439687072,21.282331151410403,24.294531092649986,22.20861596260052,19.064075667168343,20.71411408575222,21.212449584307226,22.67499769543842,20.726078435116495,24.502857273825494,24.453306961628414,21.109686403985226,19.551244439650027,19.022599256038855,21.69113750506267,18.059998168070916,17.54484746830054,21.615981857423407,19.193355752407896,23.37791542910937,20.937709055640234,17.71459472703614,14.736139134411719,14.708433933570905,18.23729843103104,13.952531224143884,16.470888402099938,15.298642612822473,19.74633658540627,15.59180986731309,17.904298846071875,20.518094092494252,19.47877466635784,16.108213975112104,16.404392664476717,19.046072170029714,15.193095889995313,19.009625669041128,17.705202305834522,18.34447295649279,12.431821724878597,18.06190269715339,15.17621557667456,18.460258557891557,17.314139000899345,16.474795128422965,17.509752043498665,19.72511003905115,14.879564824545911,16.33159733065762,14.117085792475123,17.659574997986816,14.28636098844669,18.162077671286387,14.80519052217125,18.6258060858299,15.179194455495868,16.569533241756414,18.10173502762194,15.10742463733656,20.868543721696277,19.521390539331545,14.595187704282107,16.10653733839847,14.789856621353358,18.337945467928066,16.532875126425324,16.04022065906506,14.27649650448104,20.035678503705586,15.68765488643806,20.07650379378124,16.284325942148968,17.11437506158181,14.785542944371686,15.359668933593449,15.168239343765043,25.820042609687324,14.223299914382466,16.81853821077046,19.664474390912474,11.038992400587121,16.26135764697483,19.374823190112583,19.014053292207226,21.44525791710705,23.739303892015872,17.419750835831888,14.144351486604592,20.42653019429827,17.224691246128334,16.03947186985314,13.005524485415371,18.933216613373222,15.341014315400987,17.73699329128817,16.12901729278223,19.9535721388166,16.609756244857266,16.45474059996475,19.45211125920317,15.030543518904626,17.660991186278913,14.833091059328217,12.291358635539371,12.525387820315137,14.23720134888191,17.106349994593256,18.77133164136272,13.784476880148263,14.974921502880505,16.401299839470987,13.11356174627346,15.78332084727323,14.259030182211834,11.948445732535522,18.03118606143858,13.813663381386554,14.947737198882761,12.89869179850688,14.986934686323815,14.046064763527726,10.390996727807423,12.424691949339072,7.874560356960188,15.74062358416779,9.669001147259019,12.169631554524331,15.012474909660618,12.98625130222176,10.476830760729634,12.394024147703295,15.13832033134118,14.402879101031017,14.76915097184131,16.277065942398675,15.719722598339589,17.200713713320745,13.926714274359203,13.353076625927812,16.617097634739288,14.450573718224664,14.845022852639797,16.948615919300966,15.184810374585224,14.670261961789643,15.38203494179279,14.36651399017416,13.921993646718873,14.280712513304644,15.31288588587518,14.322107534302402,12.70066960800836,14.905902671173664,12.415836703006875,14.428533270552244,12.990027804334021,11.787537442105775,9.742235987789462,10.42721533642717,14.058794180130263,19.365414490884625,14.71203137739336,15.60326959786064,13.715197600019886,14.463433359037966,15.63535358778851,11.528228482414743,16.03079568181075,14.13624502948431,14.324077175490263,10.900547786514792,14.970510157740751,12.114774605738472,12.687565796799868,13.611962356933851,15.717687845046342,14.915083478032779,14.249670317062911,14.87390007137752,14.563119992380583,14.281607804753667,14.645600751875529,15.007526389651446,16.683560816309814,14.963771054833524,15.230893467170617,19.30912507578032,13.883561226516077,18.498674700068005,14.250972559170584,18.47616218963155,16.463579568270607,15.555281976192768,15.81576295378071,18.153287537059573,21.4798487230922,18.154720003378017,14.43908143162442,19.761149589381088,14.807599670070452,16.95577825089319,18.333452732656582,18.22645726548463,18.308254347873046,14.692481467751868,14.734055547039434,20.47974306242319,17.69856087108537,18.4150382007025,14.611026223916724,15.474445297358766,11.238088940824476,18.77321989241885,13.131825691833619,13.22675914148322,18.277228429657658,21.1849885538616,19.94763065920033,14.616446806689922,20.3035171492019,15.950382231661742,23.21786987407596,16.856238119787683,17.370200523634807,22.198588698371413,17.343911511086095,20.144757558249818,18.10140946709502,15.503452740307253,19.24052947275847,19.26864162425793,17.548330965938572,12.892815430995991,18.922505672037584,15.284138891348228,17.264214294096305,15.187659029195764,17.379885949310648,15.938417882297466,17.25089886854532,7.211002890993757
P02,11.481950053513197,13.07169466251167,13.254692234692873,14.6489214692501,10.009488624337319,12.565610823415986,13.340103038930089,12.805548931755336,13.043061614169135,10.880607204241,10.909435588899681,13.296608152533704,13.880126562957082,13.497023212905077,9.73150876842748,11.423202656430654,13.231528603202582,13.875080374789837,11.855823762627049,12.16681545596648,12.770030278268466,12.839651396950108,12.233685588195657,11.186406207176073,12.222616530280408,12.877595476362522,11.847782417612148,12.61636570956267,13.248490306655064,14.121790142089104,12.91501865893187,14.672801333899613,12.832326285094428,9.90221643071749,12.106749538749915,14.19448780775013,11.982873758257213,11.131907374969822,12.50743315725555,16.040253215117747,12.408186030624275,11.593812650562587,13.272451561436307,17.632130245567538,15.03728262181185,12.241368816630947,12.165252765437272,14.549251113933831,11.90275331258243,13.054260896295151,13.47452698049497,11.639553904594715,12.783475928030224,11.232000958971089,12.39819132244786,16.504242078082797,17.971168978301048,19.747622549487602,15.463913414312938,17.984533237931075,15.434905971364444,18.61473702791465,19.017992574582948,19.269243911232735,19.073223917974765,19.000314637971243,15.62168004565791,20.707960991793453,18.234938117210874,16.982539326205934,15.728903405198704,20.070757650481116,18.889982175398373,16.441099613886845,19.585037622344224,18.664189671953658,14.215226013314872,18.088159153649414,17.675950692490844,20.188138498461786,16.41376880765199,15.639244036085193,18.97988571490707,18.832292850028313,15.511087134663507,16.668715256282304,14.225725340308014,17.7688493888472,19.544798341217028,16.601145168920254,15.191419253281678,20.104518277122622,19.9002616025336,14.576386583852532,15.57372498004273,17.000673047555328,17.585705314428882,19.208852433489245,16.099847069570284,19.530782960533163,19.070977550339023,21.569622038390133,14.511632595048335,20.559700727834507,18.329415782122787,17.662179482202166,18.889412444476264,16.60912140182977,16.17982101300795,17.89490642487026,30.916090371630435,38.303416844003564,42.175145410388495,61.06260449170325,50.389249118898924,34.32716707045125,18.50971120193056,15.916947165547155,20.256587599246515,21.310231688567367,22.23282138777695,24.001363838159367,20.484024183352172,17.008437666122347,21.399793389522802,14.986332399349019,18.326029952642827,17.155932862843027,30.397309671984914,20.47835943018378,18.380105556164082,18.62354344016781,17.28005281373092,17.092595062330922,25.037509049158317,28.606856998140845,44.547456135968666,35.135029239974564,16.344033742785925,15.911119632115307,20.75977394965262,38.20928101764491,39.312833535742456,18.62419456122165,17.19661165068156,20.23887710658212,15.832708379206846,17.77187710174755,17.453120789841094,16.024300749298714,18.217032288230325,15.345132656066516,17.116002864216405,13.725941097408215,16.26614338672054,20.87074125525298,16.584492747968344,14.31302439560136,15.0113354478164,17.715424906379784,14.466688964307156,15.33336364301839,15.46541099273676,18.266973273059712,14.385608115077964,15.906415282501323,16.93731896901688,15.227735530059501,15.83632210105565,16.006997207292965,15.045177464589637,15.041335850371992,14.201292022762738,14.673794293506718,14.861479937275556,14.63436891369682,14.201633861316001,14.132208078950512,12.438202711206213,17.378160478517977,15.99410501042697,16.374571320210933,13.131011790516322,15.950235729424627,13.17779483823459,14.333648654981682,16.35782123110095,17.106610443014787,16.634124450297158,15.956356267330708,15.728398786381982,15.68584802551366,16.926103408864517,15.637730179635021,14.436704839777912,14.263474083404276,12.90987480260655,15.492432516471045,14.141551666073092,14.464833269303718,12.23886200057367,14.433595736745833,16.199973209624243,13.485368146041374,15.945384877573536,15.598841974694537,14.69707187118143,13.584973389252262,12.331158409955224,13.686043654834283,14.65758137926615,12.087085682924004,14.203391888161365,15.599411705616646,14.224911438990718,14.130759334605722,13.585445452016295,13.191142819838273,13.384444382696465,13.0092195973959,15.055725625661816,15.122205085258685,14.97099849853113,17.089127842719236,17.367107698629077,17.286743082559106,14.915457872638736,16.029070211018077,17.328268327767635,15.846609813706294,15.46422269681351,15.305007321123743,16.812759511417642,17.181570754337905,16.913260046077557,17.130539141743338,16.434832573743652,18.58844801536594,15.60471834220543,14.132647585661854,15.42974583701278,14.567515059493989,13.721236747794235,14.99271338567663,14.241075519152247,15.11401723800667,14.372292689526974,16.164389444031986,17.65405674705554,15.863897077685694,15.192688939336662,17.616552174354464,15.111298807606898,18.077936553104152,17.35916402177225,15.146605846751273,17.418513705829596,16.344375581339193,17.0653456462278,15.406256644995567,15.74666273194214,16.294629932825956,16.72629063546794,16.501344589393216,17.60984562749993,14.342031838549847,13.002854889094632,12.66987158216182,15.0262135638966,17.086100129818885,15.877814790211485,14.889103747984638,17.08642569034581,14.48395995026021,16.155745812042287
P03,12.634890103544363,18.37131542193727,13.528114243225849,14.07554426924025,13.434759762131806,16.81627556510837,13.164267798341104,12.562355218146799,17.64668280112082,14.388896276399846,13.119861342469344,13.439480389772134,22.135462512201805,13.302744968466127,12.811441577292573,15.847586495287047,14.133640545268955,13.512959400697765,16.246023746156943,18.90982508951409,13.058786187619328,16.014778103886336,14.771755456056663,14.580244476096524,12.688151805748321,12.721798486205408,18.81682872499966,13.194496093265538,13.161744704257481,16.53958167327986,18.473248422915628,13.276879184602407,12.075821288692604,17.619124102517123,13.51655684452022,13.104625109809534,16.403790377501917,18.18405300685343,13.392257835342523,12.86465444541749,21.496517422070458,13.108320221790063,12.814843684798875,17.88522099919442,14.830209848664982,11.860739726583526,12.610391673893703,18.200933320174176,12.849841441442674,13.039659506662831,14.720219224645376,18.554459496355587,15.070343293320482,8.36877751484967,11.360450864867005,16.187894914075542,14.14383058976152,14.926966437265328,15.313178890349407,17.321382722623298,15.89596478958722,16.18665778407325,18.34496129728317,15.90280156065252,14.352042824752607,18.047285029494727,18.92748674809945,15.091000108753496,15.88330048509007,14.66699007849411,18.348477350973898,15.276960281729663,15.844347168044205,17.111233402497042,16.903949015007672,17.394340836705858,14.309915292569285,15.770217036064732,16.572333062287914,13.815209793889421,15.066990019893215,17.160653490483355,16.854414980836935,15.495199780949859,14.596489946389786,15.41682108409409,14.641417299104619,17.793233872313436,14.83177253919419,12.669773914003741,16.757609558157554,16.483243424096514,14.959034149166852,16.42084974911248,16.851533770173702,15.684008608536564,16.066037608849737,15.421069648970386,17.145335867691813,13.61401338825344,14.790686800697008,17.529741459851493,17.01911605140529,16.241384508648345,14.93334742359294,15.941461873224158,14.173977494554231,18.059265656885348,15.46200888523046,18.693408729244645,14.329286143920966,13.630584419073621,17.08411421060468,13.156535735826777,12.550016474176564,10.494606365499413,14.016455033604439,13.539948368379354,13.622347737742569,13.760678405630479,23.8725395376575,18.998800781521066,18.672165904863174,18.68606733936262,16.104160746551962,13.180480712581671,12.865517180813827,13.826376519962745,13.988391716184017,13.410310166560183,12.66542768096937,18.982701813464924,18.1312633674135,11.624464174172017,17.03596380867335,16.723669873226243,23.68955824350264,20.6882483018885,13.682869439696823,20.203911905991013,14.477741744196058,14.785901060951295,16.83357910711412,12.406672174174101,19.16945960973204,15.184191809584076,13.473761913256709,12.23629007241101,16.056466129358316,21.78289673957481,21.83728162559664,22.67734173123224,14.505772505563792,17.38929464853861,16.944969641399478,12.750366422442555,15.83085268420341,25.115724965750626,14.86834926439355,21.63849436785986,21.78063409391272,21.26618334927522,16.58846458639676,15.289819922542964,11.61640655113077,14.693979046175698,19.191109384772158,8.336270296236801,18.99774270980858,11.348535349581766,11.453121668854514,17.30271182640449,13.633498185789547,16.29788553809515,13.804922081238779,17.408388773442418,19.71711752811529,17.628158407139125,18.561507881763387,17.532964509067995,21.407020833220407,23.08845956462563,17.752603918553937,21.72123557577634,22.05903717850756,20.762622604263164,19.647105736801343,22.263961252176763,16.424935533725314,20.874680537628702,23.288467674338357,18.18392278264266,18.74424500552305,21.56439679193308,22.19687950560509,24.93549465804824,20.570460503249183,17.460185453275237,15.921065506212678,9.463149226088095,25.96848193193607,16.314928631679365,20.869162286697424,24.641790228688205,25.336552671159826,27.00120875740237,25.856163550148995,26.359431290686828,26.60220177561037,29.009314921518186,22.023062740283,27.28555332161348,26.746229752719366,23.27513597076102,21.239405995936128,20.72212287471443,28.417917946343366,29.17030460207966,19.688810040299675,22.911891812851074,16.749600769195347,13.265061337475245,14.999078093977896,15.037298899838195,11.886475286236479,14.137970500276984,14.288216683450125,15.591891257444816,17.17077842287054,14.800616396768037,13.64274410475405,15.613931705117237,15.48649103685477,16.888973230769395,17.55843962029941,17.368882003500786,13.329896716411177,14.408202015646147,14.800144334004003,15.866924790586042,12.855945701322405,15.237437233761689,15.669586277194052,16.351196074378144,17.583914731530825,14.387414976002367,16.878457625749913,13.46056043389014,14.38679641100122,16.923987265439543,14.719356489249039,13.549210565370203,11.869676363047455,14.884008725738356,13.155379995956215,14.306708521379129,15.309500056395226,14.66931783626158,14.851843345678754,16.286751368074516,19.095703872358527,16.738629379438176,14.783784917526322,14.104877272715656,16.454203425095336,16.852282559385618,16.261471593159254,16.023405457849687,16.00390438228724,18.963786746850925,16.45973795405296,12.597564589133095,11.606346730848971,12.989246459069417,18.63329397794904
P04,11.268252123643526,15.00143840779806,17.201934565296693,15.837429006847174,13.237714253214044,11.867429995411714,13.432969179233751,11.842313000759908,13.751220872323481,14.425749728047084,12.604645530593581,13.343260976041204,13.403668731811035,12.135398865118793,15.394634134184559,16.865239868356998,12.053113441939999,12.626490641949852,12.909679466290397,12.906065744441596,14.952897333234429,14.594015686385198,14.021468665718993,13.076333900020266,11.033636929919302,9.25247900911877,12.27538989169399,11.171853651622792,8.903803684788457,12.561606428934885,10.033059206486259,9.6799399809635,10.577559187758391,11.277595710766104,12.983825876296214,10.074714675905554,10.96732025058589,11.997784430390105,13.434352811473158,12.708417948549034,21.854975840234687,10.529571566090521,17.66229342838659,11.12358930350704,16.441376340334724,16.18211621472273,14.577867884250017,11.722571838959077,14.023796423486464,13.053723721425737,12.870677315165494,11.369859564094964,12.110526040862178,8.569827418248536,5.655100298768524,11.852535601305167,12.21996321198602,11.732061928318767,12.180668056386889,10.612654612560265,12.187862944031801,11.763608743377226,11.948999185431285,13.405670929051587,12.216512270400678,11.303852167262125,11.503811442895813,13.552059219980746,12.40587455088315,10.511600625004588,12.69257942891442,12.719584674622357,13.869545845832214,10.330475025853168,13.02458605426648,10.97814513810595,11.853789009333802,12.230592763189927,13.26515900563332,10.777290571023237,13.146085242912674,12.310485316495864,11.826034974413954,11.808389593854942,10.680354924133084,10.613908020588905,12.574856742380488,10.996962536561872,12.455880647817919,11.657524845680648,11.91059932128118,13.978462120112985,14.710501242916845,12.425245402234834,11.18131118492979,12.334397737198069,13.357764697515448,12.88674372716895,11.580920453696592,12.237136529780999,12.047839361403911,13.006956951733814,11.84021313536128,12.044844204556256,13.182531743901263,12.720414853966002,13.726348048066862,13.3728381499118,8.823487902797524,10.661081740939476,45.27749306153197,43.81349620605598,41.03791365578118,37.94769313426545,36.409680092994414,35.31695246241692,34.91219933732481,31.54717317503669,32.79879062077703,28.103898540103582,27.598400709956355,26.377499899930836,26.70589280343409,25.691446201554296,25.19185729497065,23.744952367157918,23.625373985620545,22.185143048609653,20.721846148266547,18.417805465181313,17.72797526469251,17.995569739793634,18.767571417276805,17.436484646915527,19.442116551026754,17.373781689430917,18.5423486447542,17.744204456959427,16.996798877284988,16.35150535687872,15.761768740391185,17.663660782599653,13.632993566972823,15.144603649510717,13.932395305553937,14.676773172328026,14.437974525832892,14.643354384239785,17.535536437230657,15.221924274653997,14.23952910664938,13.171951026776394,14.244086954026246,16.39285154379744,13.93792983451156,14.809357696915816,15.819002281023556,14.428435602394165,14.708694381992439,13.780114369087546,14.92372711002248,17.15669793008129,15.52274220152721,14.82947733747941,14.171649736786758,14.735683349674032,17.889860236703015,16.999517307684766,15.983882409881716,17.1990696326598,15.83845452250697,17.696802844240008,19.6989512507132,17.619238048701543,17.14904725769869,24.842954078271493,16.035272139055888,16.520617772586824,17.75089472578761,16.832472201322595,16.8181638161645,18.638698282695895,16.98916448292874,17.729391452984608,18.443296854439073,17.30386756627505,19.194511492278465,20.26707064821331,17.1632905307514,18.765797112405096,14.933770652277936,23.052566516532803,24.3015143659524,26.92829947739885,19.083609298783482,16.331564774604924,15.392257542338047,7.485450415186526,5.839546615294519,5.236152734702729,7.489731536115512,7.8675770836577765,14.666501737703728,12.446683562932455,12.366595673310364,16.150276395190048,16.59943597615393,29.75740417829915,17.221630977175295,21.218586400239655,23.074313959730997,23.876088147400914,24.741867534663122,25.320876931788675,23.56153156629172,22.766805764029595,24.61276650771337,26.6052946006161,24.450132746490947,21.64752867248186,18.369280668644027,12.816862160065773,14.373301927160421,15.563860496077085,19.91543272308803,17.958407005645824,12.993527579998402,20.213157824955516,22.30314246159147,22.455700124505743,16.35209136582717,21.20750106429806,21.228695054600486,20.071278547324187,20.975962417553223,16.52006431969106,18.32464632040342,21.26432765427178,17.331670435273942,24.200655714712873,14.993511008967582,14.44233703689361,19.804204969066138,16.2411566162795,14.827621642475973,17.361719671908567,14.122538931301017,14.307961929407767,13.02362565071207,14.904209756433684,13.347672321180958,15.101727328115475,13.022762915315733,14.465109995751599,11.512341128701093,12.943798209511515,12.096543216231002,13.893555934692495,13.755274100883621,13.773993831181468,13.755290378909969,15.563111706865172,12.436916747124883,11.643346684733324,13.096730267031743,15.77895833621251,14.38337802546857,12.815820366379631,12.653414497526057,17.002382240321648,17.07874246191052,19.83755864504899,18.226587489695397,11.774596411160742,12.713122298163015
P05,105.21894848865767,102.38862293578144,173.50634335966973,101.65171668310015,87.02646346415706,79.20874597519695,76.25462603195973,73.61950657102415,69.07782327431883,68.99993291825345,60.69055392154015,60.190688288508625,57.066707140351376,51.192048822228635,48.7377782339966,42.50404293270848,37.67265960112422,36.502936905930376,31.037345389881445,25.157510659380687,22.773300696541632,17.490397470173324,16.51617387139438,13.225326675164775,14.411571567099756,13.75061858534868,16.59331543824785,17.662700379045237,24.222207821594914,27.622166628421446,28.560708793450058,31.092137226561917,33.8294175808447,35.7301538831826,43.07240650060378,42.74614601855184,45.96230962990622,46.43381894104309,54.216522395333065,48.537900348494645,55.23972657538698,58.886297481354696,55.081666939567775,60.50135442132114,59.52263808727071,63.58247552610947,67.55144902188513,65.01546274139642,65.67579715814635,67.3369860247772,69.0755117945777,56.56635316652947,62.41488525236696,65.73343764943738,68.14156003297865,20.82236296095281,17.416999849379422,29.938920450082872,20.584443327880358,14.349959237380325,17.66164230733275,16.96232201748426,15.974636490917211,16.805629735878117,16.027963305226553,15.405686914073458,15.277595124757156,14.633213173826256,20.52447507882187,14.950667243625034,15.255603511163773,15.254626829583017,21.09181313105737,17.85544848900767,18.580455504430073,16.992045693591972,16.40860867330032,17.263628285147853,15.347248799491489,17.53387607854337,13.588391774784911,15.096339301394968,15.379576959814553,15.898064654985848,17.768963335031618,15.445763414937193,19.025008403938052,21.29940680104731,21.11907882518684,15.343879248037874,13.532346530075795,15.650833990843514,14.504144702929198,14.468984166021935,14.484236676708093,20.66274063460439,18.30755439274017,18.93323289139957,17.841433108323802,19.499773320344115,18.04153888619461,21.235662049876556,20.20186087467142,19.937391780628726,16.298601771254372,17.26564676041475,17.321236220386183,16.878962244566637,17.710801946897533,17.86145508072933,47.284541153935294,46.36473499723086,66.41353359017128,279.5357585020661,70.99610728905766,151.4947566279606,47.9248535982797,69.36257478918857,82.21975762051326,106.76728179863204,106.68252211544868,57.144353326021566,69.21039152088025,104.15828856998174,22.854934998666586,11.809138383066855,22.825341546769643,26.19779048907151,53.032247144585945,55.582248805758525,12.738695077552505,11.023105046873473,14.193201843668799,50.38041015059307,14.219897806876162,18.248172152630133,23.75540286007202,23.529594078600958,23.539344616382184,9.99975436458244,9.698643433235,14.383801254153566,19.49712000204973,22.088419016062005,22.026953188579682,23.136105347740234,37.70949677474511,19.956241735137333,18.501328018362397,11.051835763374081,29.619415348964505,12.10564263295839,28.77883434648583,17.10866147433438,28.223232751245767,38.56873239541625,12.953613859398127,24.23015149845174,26.785052845554464,19.01351611733781,33.54902857703565,50.00033451344141,9.60742137359228,21.46122666095243,19.42873601337038,23.89098254150746,22.495532454974292,23.03886041834951,25.790253821474234,20.644965029834612,17.488688277407,29.811023997082717,25.35097500250234,23.650084029613705,20.29169930207474,22.57226707116911,22.333956765464357,28.30696691876935,20.139743926135267,20.584508439985743,24.18040584993851,19.69341672175558,23.715440305392704,26.934387459252235,28.45535740693905,23.5738540322356,23.401453455205615,23.9391003873861,19.298316466286607,24.913128649848897,21.001714255232518,19.640415467973153,22.12678632415941,20.446845171178015,23.981390699832883,23.705575821427058,21.565373473513837,25.89785157562098,20.56749790245422,25.108839360606286,25.28416998237855,20.145978410225766,28.568912918728426,19.69385622846692,21.779885304700805,22.75721800651183,20.900725379782227,25.204016980651076,21.806809160277012,18.51799671734065,25.07491595370132,22.91778445838831,24.340988579841337,22.561556129833473,20.391125486995822,24.549982160097027,20.873199237231216,24.794608340024013,22.693636035604538,19.855855146661845,15.431552697937178,19.657702731952554,14.9540205170523,16.483503872518053,21.083902010253237,17.27499034753733,12.870563368981074,14.678547477199736,15.761394345785224,18.68855787739355,17.435394019150348,17.986909829777584,16.78352417610031,16.919413140036333,21.695630240334154,17.409072450548944,17.949030862470554,17.90722889081415,13.86336019582075,20.203749125727555,17.270481334239502,24.580536015548383,19.12251378175031,19.828622008585064,20.34743526428328,15.25602673984877,19.304843954851332,19.339141756362256,17.271718464241793,17.055171879761577,16.496835576095386,17.162671965750253,18.061463190442055,18.862407198768327,17.347801959382775,18.077220319944935,16.270082669096258,21.247365950819297,16.504176965977415,19.92827608587499,18.85172881348538,19.754247706210407,19.73531636157006,20.77115229006844,19.921829987441992,19.404270139772414,17.591711906150536,19.23645996617198,17.608575941444943,19.552497847678662,18.62154124292726,19.23092543721436,18.302638428783695,17.716515534144964,20.98405259664716
P06,11.574604579474363,12.591688221622203,11.447261579369972,12.107709942304329,12.205622270775233,13.157870533987145,14.083683282413226,14.423259190016156,14.69988796973928,14.514220801237343,11.728138923969393,12.036444742961745,13.623015136822755,16.232822266790375,13.096176814135982,16.337473698168505,12.546630644696606,11.008096706582503,10.668325462663425,9.743082445159452,12.094654965174874,12.197629759839373,12.599192391767689,12.298716303447739,11.516329245155852,9.641588950892436,7.471451312529006,12.394382264282907,13.008487086210334,11.663580271481344,13.755436881147082,14.882673927577988,14.7106640231803,8.745255708178872,9.747786794773432,12.142837923158893,15.604864844442542,12.436688854756039,12.609854499024287,13.016740045567731,14.068495883832453,13.808340466771428,12.326893567052586,12.613158938372518,14.49644519646756,11.214290466306691,12.469244907447946,14.868609712815086,16.332004281316266,16.103623571682544,13.800168897545761,13.082128877399427,11.02247020384598,13.667454148747206,13.14867344910168,9.373261964605744,5.368314030605522,4.37870769692965,8.841816960463067,9.783647286813565,6.469945741594243,9.411271156123544,9.116183094524107,11.058558588254959,10.712536582219034,7.152890336938706,6.650062103112214,6.370747449042004,6.269074896485182,11.336050103374422,8.719243422078042,7.305154995378749,8.800275437228194,12.841718706296044,9.272696317840445,9.852080109571954,9.214746544048852,7.646814490353959,7.6940370447835695,10.759075459542114,10.028582749241124,8.231602586832324,9.524842945939259,8.81464893449167,6.953875186833082,7.3876357548736955,7.52904296974099,10.291196148280385,10.134080637989245,11.464158170717072,9.499237610497074,10.116695705851768,12.270066977078862,11.082080336324863,12.11775348455978,5.168305920892796,12.137091779858773,6.570429998227811,8.74426274857177,14.63915465344253,13.140029817111978,14.148014042532433,14.192192606035348,7.692848748860314,8.412077064929907,12.619246920225901,8.453325583690551,9.43012111063216,7.903470131750603,5.717249803357372,11.472020457442166,11.664687177272867,11.010424464349976,11.903534657847038,16.064686532663025,11.60675368150762,12.231618278849721,10.390915337675693,10.179626555705223,11.293710956848596,10.338044308104038,9.452259226462655,9.00230202220782,8.616545353861422,9.9426022140818,9.261757484135966,10.56207878470339,9.237893897512798,10.079126021045308,10.932159713678633,9.159547756709726,6.553045066090333,9.825091141890363,9.829632711240885,11.099872219120988,8.748185752921147,8.11226837569014,9.328660172417832,8.917672563235207,9.30727084579925,9.342740665207081,10.252568391761438,8.17583406857109,6.82360214198642,7.101093657105881,9.172065558969765,8.834915077292383,7.546623238194618,8.226881959191997,7.522368978939148,7.025140386175665,7.4366326141750125,7.555527318605853,7.130752221108208,4.965774717096449,6.940152810623443,10.235362517913766,6.30653063510722,7.429421448503756,8.983045117040556,6.518779820632103,9.14621605313239,9.170454034361514,7.75561681845031,7.973693537407044,19.291316914957847,13.64788796107937,15.975369002102779,19.830933488326192,14.271254979997643,16.91566919397676,17.403554199617666,15.440489334401105,14.537954163649736,14.065044942247109,15.631707309887018,17.505243030200837,17.558618678589216,19.097640957493695,15.484293503298066,15.300319249536106,16.671449964708426,19.116165351475388,17.63647647860191,14.487687618293434,21.238136309881142,17.24026931734141,18.139190766243978,28.12660638685618,17.75838261790675,17.209015506757183,16.59650593141166,15.684089998668293,17.901987366330747,17.93626888981533,14.592452995855991,17.431829131380585,19.966057385023944,17.25845187276984,16.495451943855983,14.975507511828956,15.333786871703383,17.490853254911013,16.816780183925093,15.498553054377123,19.14432633705389,18.21761829717878,15.553214666846833,20.670765701592945,18.535690931978703,16.70304561384592,16.590629563900766,20.965251476217585,17.539964060396755,14.65736976492365,17.915400460039816,19.808746538416656,17.56623679491912,19.704143941117565,15.183801136951773,16.661601758769123,12.192599849698473,18.67084738472915,17.98861902254391,16.13710747187617,16.9034281181646,14.565822144754009,16.739427002729126,15.701995827648842,14.066379740407477,15.656156905458637,25.789586422394045,15.615071166961455,24.583856732922953,12.352124507888812,14.087866735184138,12.713106020136667,15.08483073676838,9.130963542446231,11.09796769003851,13.140160041322748,12.662709250569597,13.908075934193086,14.178144669298792,12.34681787130003,15.773163358833349,13.747265311921414,9.322523356485409,15.14515710240648,12.498008180001245,12.500352215795061,21.532329080031552,25.911671619988695,14.364967577671296,19.305950860642856,16.271563969493744,12.030486985319124,11.746777264135508,12.730946737011832,17.085009502053712,17.8967621198737,17.500782850982045,21.085953041572825,15.861911158471484,17.77270728109119,29.28291598834096,16.57052620136352,35.051457852714435,29.085056578105906,14.654618778471184,19.217072836793953,15.490544265414913,23.84481805879034,24.93266228146404,16.546630058687658
P07,12.948176998598576,12.567743244867307,14.428956499237236,13.667421592694515,14.541014432602777,13.779072575401408,14.672833889952308,13.807038224663755,14.003937231344404,14.852510744758938,15.668430537323491,16.161312897052603,15.664556367053153,19.021948134985013,17.195081516205047,18.455423984066808,16.702980501740537,23.04432983520175,21.07678851274006,19.326314671601644,18.815054420127954,17.438340341918966,15.834092011446252,17.155704970474183,16.2526326248534,11.96755613546567,13.38634891177894,14.327186278522339,13.273851471702061,12.23396231464354,12.72596566094997,13.674811816655577,13.792355444899703,13.360157567388303,13.366033934899193,13.916280059471445,14.257158209182045,13.877766249136918,14.656344249263856,13.75201849561443,16.775482831085416,15.154321631239252,17.29590761139188,16.799118525339736,17.826017817374186,19.025382798544012,19.235971625381605,18.778461416902246,17.701165355300727,19.923685682445434,19.13438046295651,16.67914947117006,18.41127797661659,18.034343998549694,19.37850202406677,30.470707292778815,33.91144255560196,35.576961377240835,21.92432023246845,18.958431276183106,22.2714491442959,22.64478567854033,18.11290175369526,18.18507852251322,15.805882191788717,25.739075706642552,20.259338585698984,33.74058839107484,20.07717119286142,19.810520843288366,17.31858290209179,27.038566827866333,25.878562114401028,14.763144380119654,20.215111188117028,16.31134746588325,14.902419173535627,20.68554614951507,18.44853837892247,17.5049825817793,19.3522292895444,18.10946709013627,16.497112302543268,23.891942945061874,17.828459521326078,17.124809276469566,16.58885525902906,22.30519349291106,14.85970563240385,13.470310971671369,13.721676254505574,20.249441545680643,11.458525973601372,11.307124050557663,11.366848129220964,14.49092694553628,16.400160377626772,48.00070920105184,31.266572556885155,14.516695061241924,45.44727287632026,8.626621452169568,9.240433269622768,13.404759359576214,19.329895837397753,32.679684302003686,36.29306431225201,27.377393946257346,28.785231610839798,18.919184954663013,25.401518274306525,37.062217335124636,27.232714848094517,24.427424899738348,36.31977655348572,23.44317403673029,25.05569160458675,30.827342571992297,34.09886775094926,55.405681053983976,30.289077074810674,43.45454944710137,43.26863810820425,24.043865764948656,22.704184196676714,26.599141506657332,31.242562468024875,25.003829812648547,23.267582966536498,29.211585676892998,26.06015977631648,24.86857569174002,26.020197221637165,21.496973206808143,21.86228467406402,20.338417237687622,20.91618950481088,22.042319645450263,22.044305564664473,17.77182826766851,15.70554443739226,24.4036752592996,19.52796686197531,19.637436589151847,21.898600950841843,18.875104059318172,18.59220823945185,23.551976364826643,29.639827994002328,20.713283906408577,20.17339060659235,23.3944701819032,23.398409464278924,21.989643952194758,24.89742035442505,22.626261284558634,25.741012791777724,22.683364600980244,23.35502852406696,25.196545366558286,25.846233954077963,24.561653504987078,27.318744217332885,22.923546879714777,22.29371748433716,19.17610104448119,23.297404310802285,22.36340371512419,25.41121997800871,32.92903110957099,30.224811426796848,23.345180318127657,24.981333580238438,25.61959499326326,31.316725156057032,26.458466802975607,27.495670085687042,27.869853077301467,25.344675406306457,29.576099520857927,32.92183622192608,20.03499482659906,23.300301799491862,22.305356273174517,20.93308609615798,26.798840333869485,23.331018435206676,17.72789387456078,25.914976059336922,27.61015344497813,31.950965896574406,25.42409589684836,35.290435557499364,34.23771931568024,23.509930222775047,38.7885183071393,32.20846799534104,27.508822730974572,17.971510816854316,19.383092427496333,23.998694241838635,19.310411039861645,18.527079856041695,16.222908948745687,20.44280822064422,20.56393301468446,21.895019785045733,35.36498891816384,30.014173765880216,28.62479538317408,27.848349804498465,37.53703108560974,35.276762015368774,31.762075678855965,32.21134920600427,31.753090208312997,29.774024043198374,29.701863552406763,40.67619963234775,35.35405008445936,14.793877293860811,16.522685081932764,16.135088996609273,14.053389875383408,15.097706655608029,15.059420737642345,15.826652953406152,13.773814772891663,13.882372930592824,12.139875322363931,14.954101907184029,17.1725364497159,17.463164332096547,16.374278315736706,16.363681320585492,13.639325719221398,13.732973204789667,14.944481593613572,13.665549619664729,13.085514706879382,18.46185380447346,16.034523349843973,15.40798211578824,14.242068478759348,17.019067217326253,16.353165715566007,16.83047000408204,13.933860327925075,13.120496185496837,16.263164507899234,14.14737919950494,14.779503796597341,13.598728321514592,12.349145629067504,15.443354267037995,12.948551393204534,10.630592997593507,12.443948854506335,12.960743634937653,12.877074579519455,11.712202736176705,11.286450957098303,14.294939508331003,12.70727848670482,12.460845445853433,11.860430444082953,13.832399389710746,10.92457415340142,12.644217412640595,12.723230952523851,13.136025422630874,14.160808571240352,11.21977616118528,13.335577747605914,11.826751207573176
P08,24.374537592140346,20.162402938808835,19.75620106937192,20.752774398323858,25.8016484399164,25.62195530708342,25.91121583525101,27.884161462459563,26.48096303538571,26.943714768348467,31.61166671541936,26.442384112945803,31.455365106445512,31.06242982848056,34.155287390264334,26.906340419858157,23.257490590202007,25.44375975267427,25.04138321942866,24.70789529367912,23.117043778889123,27.976734598288996,24.467908351260732,23.615542057707593,27.230566148616855,22.50619456223089,21.82451965294141,24.49309045801792,25.084878105825048,27.08303839584348,24.81243277887283,26.712517960156895,26.65678199794835,24.8692756468729,24.39809189626294,25.462870155604424,23.630680622209326,21.463456750561825,25.804122699920978,20.1762067051502,16.318184236948554,26.470545098524305,23.37745964437168,22.40377322046215,16.27201975423143,21.11344662807114,19.079002617327575,16.029037654965386,22.443377658561854,13.73850773374729,21.586632575921655,14.430486633713755,19.132068983215387,16.12870801028166,19.63605295691244,9.030739734234198,11.523312518458265,9.75830239979292,10.74033945121792,8.799396423805513,14.525371249284314,12.045186043109522,9.545760209793809,12.131589806953839,12.1086215117797,12.502842753825991,15.536627358000306,15.17336692206402,14.87390007137752,15.262765842755993,15.269879340269176,11.153671096194362,11.862709367771386,16.093498639295362,12.58776521727283,15.178217773915112,14.532452190744808,13.584533882540923,15.67474641154572,12.559115890903954,12.415380918269184,14.309866458490244,15.124711901315965,11.115596792571178,10.519235019360842,10.349927267336582,11.29623405093222,11.211539479854224,13.300059094119046,14.949071997043129,12.352205898020541,12.663002255043825,14.443688113080324,12.296095541206043,17.410228190419506,11.5740511265786,13.808861363614499,15.002170918983628,13.39383680389808,16.784565969786453,14.150179020036443,12.44344423568961,15.864157526107228,14.825684557340805,12.293605003175111,13.751025536007328,15.35026023436549,17.26870702936779,12.792168394098962,13.152433673187597,30.381959493140677,23.287067764072603,33.73202614921686,35.32956793283504,35.107047312685864,35.02184812279115,34.32837164440085,33.86290148103833,27.080808306234083,26.504712675824457,28.73250708350525,32.50822785050176,31.075045298898665,32.72091654273799,31.632502589142174,36.250887945989646,28.722170536775565,30.149232550472586,29.212741416763556,30.88757126947233,39.74833585260208,32.731139143283244,20.629810187306532,31.712183528105623,38.45739069520993,44.993181053373554,34.46486289531167,35.61469384231076,32.5951687892155,28.722333317039027,23.57821654329632,32.33444364123236,32.25002579660226,29.41032410055074,24.606743637965366,32.18750189740745,27.18222041036937,28.55912982489451,29.311760651025992,21.910581578232467,30.807125263270624,29.54588750395983,33.02381805698349,30.901000641207737,27.503385870175023,24.250157192830915,30.57268912783621,21.733948714352525,27.619383085916287,30.75223575843207,30.785280151914357,33.26019127755306,27.41633098527687,32.7671135815078,25.007606314760807,23.514976410942293,26.826415310499524,23.96083155255795,18.211872153878655,24.456692791108367,22.04261264992449,19.12196032885455,21.351170924827443,28.94027981178499,24.925223223423934,27.904557829471035,27.484161521060454,27.442164213087896,26.914642213294595,25.33238549641526,21.0468369442635,22.64665765157012,25.52764042243497,25.848252429344864,20.400306293854936,20.150568813655326,25.190229492336055,16.513943781784985,22.06418103483288,17.22714922810657,25.36108365686318,24.625740094711094,26.990855932646344,26.534647966274665,25.513494817540337,20.803675786707657,25.227327114378483,24.572673728823286,25.830069873916432,26.29529586688377,24.222077597384146,16.677017049718746,25.517775938469324,25.795137229378017,24.851190759602545,18.52126860063619,24.1319787215593,26.29288671898457,27.485431207115436,25.556826923673263,28.793712462566038,25.016494117145697,25.41888692841766,26.40611667024702,31.00863095140718,28.69916968554874,27.282313994370636,33.813416280946626,32.614393138330065,27.43553905636509,7.9449953769591275,8.91702144218137,5.715524332564701,9.068797759831037,6.9083943812224895,7.687818838719415,4.047938201579884,6.403889510682365,7.646765656274922,6.639367439802923,8.9764362383441,8.98193821124903,8.733030910393063,5.314417485374072,7.680754175285271,7.563617497699793,4.498302356493368,9.506709224589866,8.316232045804934,4.825767412494906,9.483187476519964,11.667584665962448,8.705748938237246,10.10743350886092,13.022925695579195,17.634116164781744,10.37986255778679,14.58545344452723,18.057686688329788,14.908604823547089,12.679784900206501,19.145221628502917,12.236452852674471,15.590426235073682,14.338287892490278,24.267981631679735,19.686759008980083,18.525598555644212,12.352596570652844,16.51781795205532,21.877081400012493,11.885433492550337,14.538702952861653,15.933160079787724,15.455302338375924,16.328178945124968,15.882030799035087,14.330165157343648,13.288078466728425,15.65024798189506,14.721423798594978,13.084407801087858,13.243785957041084,12.883162561372838,15.724378113874529
P09,10.673908825700087,9.950073828174592,9.834092890459676,8.416553522175043,9.97462109190429,10.468545245319543,12.30861334346608,11.774026680238634,9.867951185259258,11.409333777983901,10.966311012952444,10.200039200743046,10.457427353325256,11.645120989605033,10.932517830258245,7.8645819268101205,8.552588988348171,8.52983230751653,10.677929498207538,10.888062540307446,10.769721288772367,11.51878722713409,9.403132142950568,6.833792186478987,10.810920973453975,9.853577687995783,11.125835671142783,11.133177061024806,10.978959039423248,10.248189602674374,10.430340717485592,9.575548998006903,10.589018918305943,11.266038312060477,10.178226645439471,11.117143205074044,10.115051625190825,10.682536179663442,9.644860834187972,9.208870176537964,9.022926281588143,10.135578216413071,9.033604666871087,11.76302273442877,8.916549379417338,11.376207994369889,11.260422392971122,10.79516384395109,11.951733893857403,9.942423155791994,11.10649737584379,10.90368944559956,10.033563825302984,10.224309738024864,10.504731297886597,7.541707274238141,8.412256123219711,7.075537155742737,7.611393505025166,7.990557572701451,10.156788484741849,9.834646343355438,9.875732081852624,9.167361209355782,10.740762679902916,8.989067986788559,8.751929698980716,9.241182058834681,8.589670332364255,8.595481587769758,7.945272103407009,8.213745591930813,9.769111009286629,8.499604012592094,9.843827150214556,8.860927363393216,9.979716114150571,9.642874914973765,8.598688358959912,9.275805420872521,8.964716059375013,8.249068909101531,9.164691613035048,7.790907579568336,8.969013458330345,10.555925690744619,10.055246156395794,8.720838668659944,9.24085649830776,10.140917409054545,10.042500461766913,9.553134155728525,10.206696913518542,9.576981464325346,9.546964783743409,7.961891968306228,8.06626667323648,6.834850258191473,7.769681033213213,8.405337962022681,8.192991108339724,8.643778491938201,8.949512382767892,8.641743738644958,8.915393639546776,7.9821906671596325,9.260780802555209,12.883276507557262,10.753801379006026,7.098017110126497,20.263456926364512,16.442336743889136,26.094066905195096,25.726802074777705,35.98776992813366,32.0328280910682,30.748084861713853,24.584442741871406,16.70247588292381,18.06738839203198,26.310287929148394,36.81956079638551,23.443255426862024,20.401755038199724,18.94080217365044,21.898796287157996,38.88223090481296,24.625414534184173,22.5039319165688,26.799800737423894,26.649310383855557,17.183345059209614,23.794714293697496,14.388196321266971,21.45323415001657,22.632805051149713,26.320168691140385,22.13878322957638,47.875042837661084,31.062511218612283,22.95808885162089,26.906112527489316,23.458166098994916,18.557031424518247,30.322674921188714,25.232715141098993,31.61335963015933,27.831843885783666,19.247675526324343,16.694646152251412,18.81713800750023,22.18071542544356,26.704590561326413,15.08587253045452,20.824104709771827,27.133630501726703,13.467787877587744,13.036550403630757,25.091063755836508,15.418041936070038,18.158154666937012,32.70664071363258,39.03778372457489,43.80003427826788,50.51011346451763,88.57609901623913,31.24513439618753,26.522537114673273,16.298129708490336,17.969134225007807,14.95087885796753,16.467307236303828,16.869520989285984,13.088200581226465,17.904787186862254,48.876629798727585,51.945460993624735,112.88970795576654,92.93200119825809,54.58824740496925,23.974488816662205,35.56156236431756,34.078357437753354,32.25140942884166,34.769978221140214,24.58859363858963,24.678562290203715,18.896623610147522,18.84508737873623,20.40758257163158,17.808258490630752,14.991883206332988,14.239756999018224,13.072996904619343,14.240798792704364,18.5224406185331,20.615485524122093,18.355786184803232,11.055807601802494,21.9414121601317,18.552359630956957,24.799296411611646,24.551789021021428,20.413263602826316,18.274428609126154,18.515896851942024,11.900279052577847,10.94998415252745,16.838185788570026,10.356943096691689,13.771861409730148,9.72945773710789,13.380049315583058,18.640016802829916,12.310517872548557,14.078099919376564,15.48693054356611,18.56450303861104,16.381831319961226,11.754997667440215,13.542438906410283,11.79162322671861,11.553654759567122,11.98811528274061,9.530751869502838,7.784266144819187,9.745638095295766,10.169631847528805,9.621566978486912,7.707287358229175,9.42616555023009,9.897121408471206,9.210709593515057,8.773725976257944,7.880713450918961,8.242118191851809,9.43100012405484,8.457818318962035,7.811222556448086,8.752141313323213,8.881047003956814,8.9108683482226,8.75705727727969,8.351392582712194,7.681942471208527,8.371902895908095,8.56808566942952,8.368045003664102,8.089316358542348,8.669286159222311,7.357716742449832,7.671736148689614,6.7024936259725285,8.929636912599483,8.162437252888369,9.31093340172709,8.131069496119716,8.594244457767468,8.159995548936477,9.598110342522395,8.946777674341773,8.524655895138519,9.279793537327283,8.765114900320937,9.87301365145285,8.926511531541061,9.26981510717721,9.710656616678312,9.102004933576783,8.11034756858132,5.2872657374290215,22.908457149292083,18.126835744247398,13.763315445898524,21.47667450795474
P10,7.854977891266007,7.564822071649394,8.638992752192493,6.799217658520182,5.019573594169824,5.5061075236240145,5.356138066898749,6.444633410626286,7.746175563169656,8.033808288702648,8.247652720809434,7.831163138721879,7.590443685117925,7.389540283956171,8.998053457331524,7.980204747945424,7.968159008449418,7.826116950554633,7.784607983372452,8.703209566127276,9.317493446344509,8.846407363892625,9.047261930975344,7.667699198155818,9.364439274326237,7.85271524560392,7.845129685326706,8.382711505401806,8.28575958048531,7.750489240151335,7.0782393081161645,8.004670621543392,7.699473905583117,8.031154970408256,8.398273298588538,8.830210727678404,9.791965358276348,8.48329343019345,7.932314794435631,8.923500096667059,7.1184785892433595,8.203702049675362,7.261936835430244,7.992543491915657,7.052568860568595,7.454131492496912,7.523020099992988,7.723728164838588,7.776355024015054,8.525307016192356,7.519829606829179,8.743074452648516,7.825482107527141,7.789344889039124,8.47782401334121,30.118092686072774,27.363818072284825,24.774911928145407,22.061023097721765,20.622712967819695,19.230974271293398,15.859908961230934,14.701043709609843,13.583052582143438,12.094475906885066,8.711413691405637,10.85474142037728,14.922782984494416,13.958261089417658,12.973293993250381,12.030242814923936,9.522710524487938,9.802643743559294,9.906171991119557,9.45919366568603,7.50498404680167,7.413403870579338,7.682023861340256,7.306994412355843,7.5032260199563074,6.528904753019285,6.026027685113757,7.0420044214700726,7.71873081075038,7.892124347387472,7.9511159148652055,7.28552369560553,8.575313113127123,6.436868792059267,7.628257540319572,6.099653198276502,6.492816368610307,6.129669878858441,6.347388481235563,7.058494062158524,6.058990688464312,7.376192302352489,6.97150428936575,7.061065990321183,6.730898781946217,6.93264864047796,6.93513917850889,7.532982252116711,6.391599600791171,6.400145564622797,6.385837179464703,6.2690260624061445,6.398175923434936,6.120310013709516,7.372920419056952,13.819425802713024,12.371088408581848,12.102549807952661,12.470140198896972,11.959042727686738,11.394553330061777,11.693450449826168,11.132411993786548,10.207885209441796,9.65122554248924,9.898016699920234,8.794903688534031,8.445902803676795,9.782263654574162,9.052373231247971,8.340225856638869,9.327683490837076,8.906180276634966,9.5095904352531,9.683911819391913,9.49160321614082,10.235769468572414,8.898497048199674,8.8310246289957,9.250330309641106,8.883309649618901,8.265379491500177,8.884074716857162,8.71374144917311,8.381816213952778,8.213387475351201,8.211889896927374,8.013395643664824,7.864728429047234,7.017864108399025,7.339729523337554,7.1942202458310796,7.164431457617987,7.14603728784706,7.362437370090159,7.49694270178677,7.624301979917507,6.291099066131256,7.122906212409459,6.326699109749856,6.529734932362929,7.10267262566144,7.8239519730506215,6.930027878236261,6.813070258940589,7.3255025283111905,6.640620847831562,6.853049091646249,7.028575049734661,6.27237933583341,18.746702987501294,19.2219074106187,17.598206838662573,16.584020685204315,16.097796038250692,15.30259817322454,15.048709796306708,13.980464317353539,14.740485367446087,13.934999789769291,13.577159936606204,13.588342940705873,13.68643432746659,12.813492608612162,12.201064423398366,10.95799294148966,10.907286889422016,11.602195834130754,13.133599996705328,13.255148019430559,13.807103336769138,14.489706093560333,14.522766765068965,15.512893995587905,15.647920224127587,15.85263268345429,15.872703489938853,15.502199332278614,15.438438303081519,15.633009551994695,14.285319194760547,13.734910289924835,13.763380558003906,14.4566454220517,14.57889339990981,15.159742214012455,15.64935269044603,16.08999886363098,16.09209872902961,15.036647778784356,14.462277619167402,13.523784288217824,13.912568669464568,13.95020346637641,13.455937474407891,12.563771406438896,12.278075766041074,11.653325114883392,11.062042085892992,10.019629834750848,9.940746519078361,9.816789348453929,9.78166136759936,9.291155599716756,8.802554360916627,9.027223680543473,8.896169290432205,9.432693038794818,8.745662658837523,8.003368379435717,8.88396077067274,8.807763329347333,8.744783645414842,7.327814008052316,7.293483650488701,7.053366483859548,7.530817274612697,6.290952563894143,6.1465176361265,5.618181735015902,6.129621044779402,6.466771526456783,6.091986247867559,6.516370672732902,6.327806015541381,7.193341232408398,7.39030535119443,8.158677028802455,8.219556847336317,6.922458595985392,6.631830713604747,6.986008010839995,7.131973073084155,7.024277650779329,7.150725359434694,6.665689008404329,6.917933304661218,6.942594514575337,7.837820851497373,7.642842651925546,7.211930738495476,7.294802170622724,7.523394494598945,7.282382036520762,7.357798132581562,5.849459933339204,6.697398603726246,6.912594112019745,6.499457803359456,6.258494179360312,4.928123642158259,4.787904723214219,5.643038281246173,6.252096915006352,7.091929128273111,7.127382669654596,7.8023184760368505,8.436249934053645,7.528261624476383,8.060569364015393
P11,40.22095206953049,36.98548271892981,39.47659048078274,54.55074283226818,53.67684070985934,57.63681245706569,43.929249251402055,43.242967660656674,36.36437834567363,27.10203485258921,31.606913531726345,30.32630492106387,24.280125039333818,24.595918750445307,27.21002327936826,23.55871546773387,21.94603511961395,26.843539794215474,20.16749796105512,24.20107894339787,19.23421359853624,17.237795057336825,17.188423803429547,18.93870230825181,17.206134296093946,16.833204712508163,14.317224126398616,16.876097311929747,15.623047399870972,13.971153286283652,13.955038040201158,13.079703451473877,12.696095482605147,11.191143112842747,12.601031808744782,14.555225149602796,14.077448798322726,14.331988296294393,12.642736112243112,13.444249851491495,13.744725939811444,13.592054330712752,13.093149101235634,13.675430381656723,14.780122361598481,15.4171792006737,14.285286638707854,11.87182506252512,13.559840116574108,15.898959946434877,14.222404622933443,12.468772844683912,13.59483787321791,11.52704018649149,13.888607414683324,27.58365281808692,27.01027561807707,23.033211943207462,25.327599756669553,26.23013492742092,26.26223519537514,25.415322040647894,19.686156722005283,20.365406205369215,16.64986530177369,18.96588661224955,17.901482747514024,19.919095279015874,18.483047794775892,14.515002146501944,12.956853186640972,12.037877209280188,10.852315994451732,7.874299908538655,9.413240797311405,8.626702842301297,8.203409045201132,7.2127609178391205,8.924281441931667,8.057443982956972,7.125706032940963,8.398680249247187,7.461326380141824,6.639074435328696,6.502404126128074,7.386398624871402,8.11690761319874,6.760296897527008,7.549016108067473,6.538883183169355,6.85630469691544,9.399437030970036,8.422218275343434,7.085076079181464,7.817668654881084,13.361541199627707,11.47558534521193,9.346207884818769,14.047757678267708,27.53177474812237,26.96209266009305,22.731840563438492,20.650222832344355,17.642955133087597,14.95068352165138,15.657426591513625,14.66404375572549,13.701344999599481,12.022950259120949,11.466990547301268,28.165022529032637,28.710287577543024,30.795177191932694,30.58525576417529,29.32302504525739,29.405961589490023,23.12433633469211,22.574790165252733,25.43602769015995,21.397937694519364,21.938742563810962,22.7074723579986,20.314146700405804,20.48270566321815,20.91579883217858,22.889216522151163,24.827978294033215,22.51078496566045,22.55271716152762,24.26254477088019,22.952407820426156,20.72573659656323,24.36465683014835,21.754768310049002,20.336480152552458,21.582156118676515,21.15809725433809,18.853014777566713,20.185159619640476,17.981879919636686,18.177981303026385,17.173155014717047,15.930392815308911,15.202960373960957,15.608559956423072,15.95847241075568,18.36665990640233,18.634726444267482,15.895395058665112,17.572568947167696,17.03584986248893,17.781464859265313,18.355118785723043,19.040651587256516,16.823112336173672,20.16744912697608,20.050735678075597,17.11144501683954,19.90465666964701,16.5977267833876,18.905218408058182,17.436761373363407,19.40842103649063,19.24966144553855,19.512421346814925,18.47259730186179,16.8907800916938,18.013833685353795,20.368173469848028,17.650166298758858,19.14142884836431,20.85405627824838,17.45595316642529,18.612116265672952,17.236997434045875,18.851745091511727,19.094645800646042,17.936594450342245,18.205002826760666,20.358488044172184,20.021288728415765,19.490787849801155,20.212148587322066,18.866265091012316,18.623722498457617,20.209185986527103,21.914309246265688,19.365740051411542,22.15427991065773,20.389888356993524,22.6459088623582,20.027783660927803,18.828467513837012,19.1515212246988,20.631210097572282,19.626741925842556,21.849962208120136,20.15468715432085,17.416755678984234,18.868283566279217,16.346801007264737,19.64373618534773,19.504152109431182,14.314701032314991,13.241165194799384,14.870270071502372,13.898634678912432,14.943928140717807,14.323002825751429,14.098886959020346,16.738743325622597,14.496787035020823,14.460291699953196,14.769850926974186,16.45177799916979,20.447935798943195,21.78851265866416,20.319111498441323,24.99850689803342,22.947361632258907,30.70019490820406,26.001217042917784,28.996813397284495,26.7503155373322,28.43274722834452,27.600370351144214,33.41665566679036,27.300105877166764,24.858222866983994,20.893774662532504,22.35876447761559,19.792045283385708,19.816625103168096,20.326273830033543,19.97665438017516,15.910273174745312,13.876105890449631,15.8654923242676,17.289282454669074,17.25490326302642,15.1478918108326,16.974270088822188,17.193974610413516,16.939890897179538,15.503534130438986,15.835736092107195,16.718607407032653,14.793063392543516,17.415095320296945,14.839813884209095,15.60519040496946,15.751057799055548,15.355599427006961,15.309093105736576,16.3547935182006,14.035923553114198,12.561655263013922,13.63987917211716,13.103078697306668,12.960076235857468,13.120317127207032,14.320561121799535,13.534397561395386,12.969354710874661,13.265175283659666,12.487997193798483,12.86071516304177,14.156022831494642,14.228362380576058,12.917981259726833,10.9455728073877,12.743187812823988,14.255725742863605,12.68776113311602,13.104885558231068
P12,13.845682259209045,16.71211247452062,19.566285335993683,12.522376385441135,14.814306216924981,15.175938850226677,16.747859020376332,16.681330726700416,14.331190673003439,15.181668715500454,15.099285624163585,14.558513310924676,15.410016869081483,13.293694385817778,14.031967992712135,12.060438553795677,12.554037146684013,14.015901580708679,11.648230092637109,12.651005349626857,13.964463017455465,14.482608874073499,13.03182977599043,15.518998255467643,15.244225170747951,15.092432575071939,14.85330836804989,14.28116829804233,14.304576099927809,10.702362815752814,12.5870815401663,15.717427396624808,14.171991575340021,14.296713813202716,15.71874591675883,14.984281368029428,14.438348920438848,13.023348924264187,14.974221547747627,14.698292723157378,13.566611775534026,13.697080156696842,13.15985645320135,13.591386931632568,14.36350255530016,14.540102863127405,17.246194518931336,20.02337231578805,19.114521270814446,11.917566316557247,10.88020025358235,12.78007382052392,22.661259041202438,20.18935935043773,17.425724871500854,22.827311187957505,22.98426391798518,23.359700317628246,24.966943804948617,23.246340142155027,22.201876859693296,21.48775984389633,21.92658287813054,24.332621674299514,26.21099196843808,23.16062005541724,22.861771769731885,23.714284565522142,21.660502259479586,19.993534693495917,23.958471238737783,18.993787149406515,15.274941806462765,20.47430620162364,19.846039496775234,18.834669441874823,20.250239168971596,18.175555877100837,20.59320090605448,19.441221259577727,23.39158897123997,21.471498095576727,15.09754387534457,17.345343977404536,16.982311433837094,16.47920647356272,18.17783480078927,18.74691460184379,15.15502158637213,17.616373116064654,17.772723559117534,13.511071149641634,16.060665860155574,19.021834188800593,18.966228450802816,21.604180288322585,16.893645024330688,20.31518849409195,18.771966484390212,19.372088481686465,19.15603023799663,22.113454620582075,20.231454326568365,18.98865957110754,18.30096179207006,15.567685832268385,19.18466328633916,17.011595603233463,15.290275707280651,16.59753144707145,21.183751423859313,22.927160601563582,21.672271272527713,20.571111624303025,20.73735910737424,20.53471395739347,20.928691029044572,21.550381411249216,22.511029136055637,20.507952882080723,21.24007339501631,21.855301400761608,21.677008178194384,19.887271737509533,20.93756255340312,20.64753695799727,22.56053061417368,22.049937761780168,24.20988535565103,21.386396573840084,21.137993891800836,20.57156740904071,20.905153002948328,20.815444799755777,21.201478194550056,21.417438770081816,21.23284595131871,20.5577148086203,22.610813437556327,21.674924590822105,22.227693809477977,21.694653558753398,19.86713581891959,22.42460909418497,20.080491910236,21.377492493428846,21.432479666425476,21.224820884330153,22.117003230325498,24.019758007930296,21.476430337559545,21.87198637776621,21.18689308294408,22.298307887766725,21.47110742294442,22.09353031633463,18.903965000029544,23.138237769191555,22.33503111520319,22.06530421865075,22.730945271989462,22.690315318229963,22.771835674170497,22.96399777518447,23.1187366936291,15.729880086779463,17.074005556243847,17.781448581238966,16.085587518491227,17.71028105005446,16.95234358733419,16.87118134797327,19.702353358219504,21.26719258690867,21.60209670095031,17.631462846487352,20.410642840584618,20.647862518524192,20.818944575420158,19.154044318782425,19.17427790553044,16.213825810044646,15.906887345265357,15.713569504380816,14.468626049442326,19.317459425269448,18.911257555832535,17.186779722768613,16.864914307830077,16.289583744658717,13.78050504171985,18.320446589606167,18.433448648499773,14.726404874656838,15.756576049986826,14.838625588285836,16.95561547062973,13.563877067107907,16.018587162051286,12.820101487308618,17.210334026891204,13.281127749478701,15.43741278742172,14.664580930594907,15.385534717457169,16.78804946742449,13.65102962016414,16.93292390190347,18.286702240991005,16.908783588832424,15.651078161238702,17.61233616553086,15.455107002059771,18.1175898252829,15.141885219110943,15.96342093076485,15.532150900755168,18.257027398962336,17.64612934822506,18.827702446598753,14.869602672422188,15.061243876593092,14.848131955671876,16.387935579840963,14.90639101196404,17.031682687744368,14.27649650448104,14.166277988092594,16.829590990659362,13.967327950092352,16.11495307801933,15.801487124675312,16.21929522689689,14.196685341306832,16.679019246959296,13.241018692562273,13.734389393081763,15.239309206791471,15.402431308804271,13.677758139424194,14.927373387923975,14.677619629698015,16.67481951616204,15.218945395832685,18.277309819789387,13.856946653440446,15.671718698645371,15.473843010383966,24.77085869958526,21.707822482067275,16.826595833811705,16.806541305353488,16.153125049800586,18.367424973640585,15.204962571201513,15.450304984287719,15.49253018462912,14.769443976315536,16.290804596634658,15.862513445446288,14.16977776375697,14.503135465295744,13.93371382568796,15.839773042640989,15.872768602044236,14.528447796263704,14.008381132536845,17.169704073131705,13.506903974897071,13.751090648112713,15.575157446361176,17.933094674677864,15.969362410381121,15.722799145318971,18.389595645523773
