,F01S01,F01S02,F01S03,F01S04,F01S05,F01S06,F01S07,F01S08,F01S09,F01S10,F01S11,F01S12,F01S13,F01S14,F01S15,F01S16,F01S17,F01S18,F01S19,F01S20,F01S21,F01S22,F01S23,F01S24,F01S25,F01S26,F01S27,F01S28,F01S29,F01S30,F01S31,F01S32,F01S33,F01S34,F01S35,F01S36,F01S37,F01S38,F01S39,F01S40,F01S41,F01S42,F01S43,F01S44,F01S45,F01S46,F01S47,F01S48,F01S49,F01S50,F01S51,F01S52,F01S53,F01S54,F01S55,F02S01,F02S02,F02S03,F02S04,F02S05,F02S06,F02S07,F02S08,F02S09,F02S10,F02S11,F02S12,F02S13,F02S14,F02S15,F02S16,F02S17,F02S18,F02S19,F02S20,F02S21,F02S22,F02S23,F02S24,F02S25,F02S26,F02S27,F02S28,F02S29,F02S30,F02S31,F02S32,F02S33,F02S34,F02S35,F02S36,F02S37,F02S38,F02S39,F02S40,F02S41,F02S42,F02S43,F02S44,F02S45,F02S46,F02S47,F02S48,F02S49,F02S50,F02S51,F02S52,F02S53,F02S54,F02S55,F03S01,F03S02,F03S03,F03S04,F03S05,F03S06,F03S07,F03S08,F03S09,F03S10,F03S11,F03S12,F03S13,F03S14,F03S15,F03S16,F03S17,F03S18,F03S19,F03S20,F03S21,F03S22,F03S23,F03S24,F03S25,F03S26,F03S27,F03S28,F03S29,F03S30,F03S31,F03S32,F03S33,F03S34,F03S35,F03S36,F03S37,F03S38,F03S39,F03S40,F03S41,F03S42,F03S43,F03S44,F03S45,F03S46,F03S47,F03S48,F03S49,F03S50,F03S51,F03S52,F03S53,F03S54,F03S55,F04S01,F04S02,F04S03,F04S04,F04S05,F04S06,F04S07,F04S08,F04S09,F04S10,F04S11,F04S12,F04S13,F04S14,F04S15,F04S16,F04S17,F04S18,F04S19,F04S20,F04S21,F04S22,F04S23,F04S24,F04S25,F04S26,F04S27,F04S28,F04S29,F04S30,F04S31,F04S32,F04S33,F04S34,F04S35,F04S36,F04S37,F04S38,F04S39,F04S40,F04S41,F04S42,F04S43,F04S44,F04S45,F04S46,F04S47,F04S48,F04S49,F04S50,F04S51,F04S52,F04S53,F04S54,F04S55,F05S01,F05S02,F05S03,F05S04,F05S05,F05S06,F05S07,F05S08,F05S09,F05S10,F05S11,F05S12,F05S13,F05S14,F05S15,F05S16,F05S17,F05S18,F05S19,F05S20,F05S21,F05S22,F05S23,F05S24,F05S25,F05S26,F05S27,F05S28,F05S29,F05S30,F05S31,F05S32,F05S33,F05S34,F05S35,F05S36,F05S37,F05S38,F05S39,F05S40,F05S41,F05S42,F05S43,F05S44,F05S45,F05S46,F05S47,F05S48,F05S49,F05S50,F05S51,F05S52,F05S53,F05S54,F05S55
P01,41.745390274214174,41.67492047046103,45.258772915053605,37.8950223989221,41.061673539987304,33.15145165523475,37.69072239922944,40.08921306852655,39.21334831287019,34.675692518709816,34.51330116446331,37.113214659652556,36.463918062876004,39.25697726474055,35.21081917394894,44.2928205097737,35.70229001058794,37.420138283932445,38.12892130829438,34.82078613296918,41.12192752389008,36.40213316943957,38.48612293638794,37.60246109253979,42.537936183256654,42.37364739194823,37.86378642023378,39.31533762964271,39.41817396388357,39.31553205970772,36.85839784612433,36.15987877299826,36.92814106096265,39.50111371758016,36.263951813831355,40.814943671444944,41.120159927274706,34.48329708444352,35.21113672065379,40.11576732455262,38.01262972348282,37.543213589562704,41.345919964020396,44.39687429391947,38.887029431156414,38.0340750363016,35.98981969665999,37.36846526757092,36.89684736914559,31.19614374671613,36.81620388005197,34.703242087310755,40.04170210296062,36.20056762704562,35.39350324178187,27.147046977034865,25.77743464387576,33.9387192250695,25.721507383081242,32.094490396956814,27.51799370945717,33.462372321302496,25.889567797642343,31.313414120808194,33.7632696034994,34.24599928685919,25.95475727128198,30.82338703130637,32.30552606008156,28.17550909034124,34.526569823638944,32.091736911029884,31.62941706577549,23.13293363516274,34.137292849493505,25.29851253862318,31.859551763012256,30.846155449572315,28.73153879945,30.305610036172755,32.9943573905137,27.485356570748923,30.41342961497803,27.450139435080363,30.30290705818043,24.440557745287585,33.65165674429628,25.037987411798184,32.545659958367615,25.838462087945544,26.6813149655865,34.99057985414189,27.14031241269527,33.21964605366019,33.06196065310695,25.743952243327048,30.178737445112617,25.107336280177993,32.906176677975594,27.351841707339048,30.37350503804023,25.908366126593606,33.354312939680646,26.07999429720305,34.02301063171604,26.467038340846873,31.526725284339083,25.16423767205949,28.82208173072862,28.000774045767134,36.24292351766732,22.824413661897772,26.368925550429452,29.293739300293826,21.421469366856208,28.19387462131873,30.724302600036008,28.523201447077586,31.41830474202321,34.221962898964925,31.181143508492998,29.153662041405603,31.574078455816892,26.02746196077459,30.88781599681152,22.826620010039182,31.665045083267948,24.190166935936826,29.739955626306674,27.917073035519127,34.08002572638157,24.505107078838513,28.383396144723122,32.564421852205264,26.26161022984059,31.652981238561427,27.30314421040727,22.251169843045087,21.057622433537308,26.74026845739556,25.777219812338913,29.882597260110884,23.72173326918045,27.344804369940825,28.184256937278235,25.066362986471695,26.57784665656018,23.006237476800724,25.282114059273365,32.668967730491694,24.197787968127507,28.723668635753587,23.458998853486733,27.72561222085937,23.731306512875793,18.681398411889447,25.1842120112013,9.967379967330716,27.046151253407906,19.24417341601304,21.033394805573423,22.739368619377252,25.45397791586211,19.116425651722075,25.232207712090542,20.510177027633308,20.904120077791426,21.540493656358603,23.258005456037345,22.14463522735829,24.11376465634838,20.03058571122505,19.009934204767845,22.384733246596628,19.88355700662749,21.690124086652688,24.754418563749226,20.884968737859143,22.14632109716532,22.248242189624424,20.1810300162677,20.224170595757275,21.157039420296584,21.3169516910765,20.908952600652835,18.830862113864036,21.325381234199284,17.93942590099388,20.8042086785384,19.99613242472628,17.6428034669744,14.395171393429765,16.260032525063725,20.163865704890014,25.918652053238226,22.042493658243252,21.585133450192266,20.456459905812764,20.956053345018233,23.57183621413658,17.396986932253885,23.1521048805417,20.616233781052546,21.42504581841579,15.672924952077278,22.885755590996382,17.89858449107889,17.580030810013316,19.909805879115105,22.720266753882793,20.151689345429478,19.469495956893027,21.27952668290794,22.450164485007754,21.073752749324647,20.825639617638483,20.61408967733077,24.77786370420079,21.316884021532477,22.459317650972952,31.24334589126919,17.805922079091395,29.10486570671695,22.768278354255155,27.495562078214192,25.357159476345142,25.15008279245487,28.536398403080653,28.19816350968665,32.44047892396902,25.60938453296693,24.282074601172685,30.6389097714453,24.038462922960345,30.092650377226096,25.84641288640301,26.463707621285707,29.375521090010995,24.6259102564197,24.421643254146385,33.07697488672728,27.2861591668405,26.73886512842025,23.476040044549173,23.689003334032336,21.154652748524516,27.1132870936271,17.38760357187397,16.962678342264002,27.564470393996334,24.11808357764783,28.27182598869363,23.70300676884188,31.760400902707087,23.991457913599284,33.128599378837215,26.234806120354573,26.666894105268963,35.410924431197,24.85291888887201,30.32395840213467,27.26738753908612,24.039591712877105,31.228705708110432,27.912744538390847,26.321392583045675,22.2774911804949,33.00107950207957,21.225041159211045,28.72841731986956,23.85020682542113,25.13048293623074,19.770696280726458,20.660311408121046,9.744450555128473
P02,20.73364801007202,22.871128897683743,21.2542644445227,23.01432047337911,17.061299390337926,22.196351040699348,22.406701932936915,19.25310010061063,22.07186394119631,20.05091579018091,18.22649625839866,21.618878774709888,22.153913281480023,23.39817644850245,16.678581264614426,20.79699047477935,21.751497369527492,23.070170437068093,20.45711976391394,23.27465850659552,21.493072541806022,19.859073749355993,21.094241390731924,20.10823737735526,23.396526188120994,20.933889614187194,21.46295268687969,21.896357076162502,20.518871159431203,22.28826203267978,22.56976463639444,22.656489085322118,20.50189058836473,17.005316333374825,22.547707570180478,24.0918924919886,19.249448831161917,20.281808973111477,21.767133585389985,24.067776426745965,20.94308856514929,19.849154005444177,18.84916684608737,30.23019649570042,24.16858125439523,21.18952781617267,21.23554787287049,26.423390580289016,21.01636314339192,22.920538407244713,22.282476923968204,19.129509426729943,21.720324480508545,18.6952559853537,22.334660752026558,23.95990434133955,28.654270895669807,30.824773707378863,23.608010825366097,26.270779246683844,23.204209244474413,27.082361283873244,25.31030796999503,28.645984828348386,28.447879012798907,24.73890988877141,24.558285912515338,29.099339713985337,27.037315580238268,23.961011460625773,24.35667004773972,27.855427849362023,26.748213019325714,25.003936007679552,30.76460837788629,30.60194959790579,21.60969014266123,27.25701080287951,25.235884093258964,31.10046653930086,25.512273488279543,23.795171596248952,29.003093790045142,28.405043848933488,22.91773373648829,24.66231307916735,21.78991038939018,25.865388450303726,26.68311478229931,23.46530474189099,23.710914569005137,29.218529232167736,27.54398859538573,22.90225956972818,26.55211427416356,26.025819371251686,28.182061961808323,28.19843494584531,24.25920901439941,28.87087975402002,28.608064774553547,28.679108757388043,23.7585453260112,33.162189569545674,25.596600998113338,25.6137060175682,28.049861825336368,24.528833807721107,25.872127188879166,26.510201047916233,40.10156364680964,48.896119448114156,57.55457913566595,68.56702261248428,60.09822177275817,42.17019789102118,31.96583306362837,27.350751581810027,32.01734084844429,30.668093947926238,33.313499983288615,32.9947359229849,32.01800115378364,27.863681803760038,31.690430603746847,25.735480921516043,30.244019916574434,26.30144010954006,37.97681523876992,29.504488196225182,28.10274350078078,28.601511783150663,26.61146088826659,26.904351381422945,36.35626313591458,39.12940476561282,52.096503724570034,45.592703433850126,27.355878239870894,26.52768802663832,33.68884943126887,48.4351699891876,47.416309888464305,27.78416572974346,27.018652076640503,31.102549233188032,25.622682869764677,28.52125134519933,26.70998986262891,25.63354717339205,29.33952058194321,24.369522123236283,28.92254487786149,23.475981137892802,25.519050065587052,31.402962641824217,25.977723292171106,25.208182314207694,24.97842170863704,28.64343509877871,23.963350266267557,24.32433734787961,24.84421178052694,27.440443856624313,23.73822983165507,22.34508279899022,22.18155400781075,19.75522844744223,22.048929704090018,20.31039347045922,21.300881089711595,21.17004652834561,20.7996731176749,20.410343542990542,20.6144038019712,21.970845157333507,21.967903097972677,21.031911581612505,19.212518011016172,23.132172397119984,20.882706460894333,23.860679092628725,19.592073776104844,22.134777457407463,20.705425212437973,22.10269502019685,22.485068765584924,23.31498778073415,22.945251665395677,22.803340794187687,21.056484572161,22.91754076169679,23.542710391753374,22.29771484014725,21.445327866205226,21.095958041862264,19.705144809026798,21.22410253673779,21.55395049031411,20.41314550410797,19.513569320712044,19.753592415658456,22.502638234938384,19.05093323813223,21.90455468937865,22.303455180482427,21.925981511423835,19.655179188043878,18.146850796000457,20.021701942104166,22.68198407280864,17.102979590172275,20.60078070944721,22.097171404575494,20.737642947469126,20.372327387674467,20.342129340692125,20.16655666672132,19.586930524283797,19.142318289633504,23.51815850522865,25.151944408294902,24.044722236954755,25.82102810787665,25.98518408601686,25.682430078351587,22.582664265060004,23.871394202722676,25.322222678199076,23.07734664400579,22.484490792599008,25.480947461631974,24.02549712742238,26.61426508870939,25.365212301005585,25.464417122890417,23.45829812105471,28.392992607551346,22.792388472423234,21.959001200619575,24.072778957846865,21.249030552267016,19.42764088837486,23.15146110949548,22.154414950851884,21.784623442722307,23.5307638281317,25.039300069043122,25.875528297686813,23.453193249724613,23.014079983684283,26.61956342298248,22.165070709613563,25.469828435530378,26.127042423762003,23.317888235050724,26.773879343965472,24.318242927004206,25.76087510392565,24.442550251582002,24.29891225343823,25.10025318249874,25.145040447393395,23.068431300207823,25.415637320323317,21.403420926702346,20.325350865644513,20.836260499290315,21.93721784248674,29.016401177337602,24.382491197858,22.717110573036777,27.774222661472965,21.78161745843563,23.82093571782016
P03,43.36987170545968,45.864617893933065,43.639131476710375,43.16146167540157,42.92192907447188,45.2741016338497,43.14006029546953,43.112396140357525,45.811846134690285,43.5650119171555,43.41159821414335,43.872035691153314,54.592817434418215,42.8928181124858,43.4555224524336,45.314710906382686,43.470096086500625,44.07334034572644,52.03938909372903,45.18869541893431,43.25981405150432,52.417409281475734,43.501727521456175,44.025841843460185,43.520766340514925,43.44044251784669,45.191808769385645,42.83665387810995,43.319879292381984,44.41047270759805,53.54988964265241,42.98442698790314,43.25505118524718,45.14376411531998,43.89259038102074,43.959365603745646,46.09684924640235,52.69719142842728,43.0586831978209,42.99911494393662,54.41279682591038,42.96594580708036,42.91257035020973,52.943137430088505,43.65029579358226,42.45391011777184,44.096568250525856,45.55822004352227,42.802084031049404,42.79070259124451,43.80590766652531,45.58088262880789,44.014071335120164,31.307576311124304,14.00206826531775,26.682996677122187,22.578449191759823,26.507832384763642,26.31291048876039,26.08637171561465,24.8510814495232,25.7410912509556,27.876129970658212,25.161802915194716,24.70629369419703,27.622441589810276,30.388374629998175,22.967918002850517,25.54666871348144,25.18436784290537,28.437883397202633,22.854463081586683,26.508464569005977,28.41137839433445,24.289199718564504,29.004557023301277,26.867643633104343,23.760568680888728,26.922814023757347,21.581147094736178,25.927668940814375,28.059355104144995,26.676354345210434,22.81293582899957,25.923240308884452,25.277543805296126,22.16320064802774,27.935596265546042,25.575522418989454,20.86213523474327,26.96985096020597,22.972909032464813,25.494230442424225,26.70964989781313,26.31360078353333,23.419600425967083,26.325387466748136,22.655211950583713,24.709092076058365,25.18242291032074,25.253115140961732,27.376806895107364,25.03897846458668,26.731162750508087,24.74327744736502,23.05372209973181,25.19882855186027,28.340282511402968,24.56198415967319,29.33190847731719,21.74322868523379,22.132462833277305,24.176338517581595,20.825043051916417,19.696486903150593,17.081766396683165,20.6702665717987,21.558522653190682,20.72663217992749,22.167995509353702,30.33514667915366,26.19562427143819,25.28982620421297,26.15140930220436,25.320094713180115,18.868834496035788,20.39869888503862,22.737383322324,22.768644332206872,21.145424198916764,19.57443744282323,26.038641656493407,27.9228390736784,18.761219022386584,25.46720044882196,24.789371512885296,28.613278495151366,25.65647492258139,23.237267219718564,27.130763602544857,20.767984991370824,25.009025300541033,24.554139004180538,18.869999560709875,27.46626998055269,23.13373583666338,21.549772305859324,20.611920737164244,23.541686445957293,26.956295157982193,28.488689510671005,28.98095065679154,22.626394486040507,22.181508600291323,21.40520294576537,20.64762462038519,23.50556182409204,31.020225274269542,21.831856726782824,25.73754435998931,27.984003780060167,30.416464365035186,22.746584735613535,21.923460396201765,19.45586757962016,26.32105880528703,35.10431700832841,9.872907481824154,37.60817598721833,25.342351465281908,25.142997066743106,34.45765027886192,25.65188998093827,17.710565349390755,25.252846324767923,34.81080731710342,35.179039931613865,32.491410671424774,33.029394543101844,27.08813960429703,34.208980904233094,35.29741036084597,26.343970673004044,34.55404319427247,29.20819607413807,28.575973195138,27.51369708452591,35.123824939248045,25.807152286033887,28.94299840085525,30.09962555569342,27.329361610334384,33.61659578566119,29.296401619263868,23.122503691512854,25.583016547991072,21.6173994996327,18.761663826919204,17.226999580088105,11.799488191965967,41.83947373649331,34.31222771734412,34.585169186950196,35.90435759075407,36.104731544983714,36.693478935875355,36.49268416222783,36.86535307962817,37.348758792421215,38.565366790442546,29.344422589393062,37.484212592421414,37.56127011325735,35.52465059241379,34.198967233484545,28.545625156756778,38.52728271475485,39.1009006942898,20.91046871929988,30.854939610211765,27.556133531531568,23.08391770903567,25.652090829383063,29.272409863619632,23.461170615176723,25.522392413069024,25.557344228318296,27.62411604568747,29.88941534476245,26.151336998382952,24.90339166613729,27.882199591672723,30.954561889489266,27.613611717908256,33.98993087939141,28.88180776829774,25.092440405462355,26.59286441817764,25.35837896574262,32.77270056740565,24.068192124986254,27.269551571927284,28.483574982802516,29.467092606961252,29.69659549645011,26.791283289804056,32.33949169629228,27.16424379558736,27.61300528516509,31.48258961891905,28.035181242385313,24.880160479680217,19.849194768846044,26.67403100298294,25.53524882174027,24.425777192535115,29.670260649668975,25.761691673287704,25.526321961386344,26.96340793998148,32.30627521687624,27.99327012680604,28.48796627827016,25.84921715532769,30.819489306029343,30.104663301367964,28.08946987533578,28.48737588643124,27.223496295627406,33.07944051045463,26.530877045918942,21.549029055524066,25.53952403525492,21.847052996390946,29.35891270045791
P04,20.479274428789562,22.019591943965825,26.50772338434107,22.911899012647247,21.960275504503038,21.153846270155533,26.65716737404406,20.305164760978695,24.84122699140311,25.00295128981527,22.29146038036752,21.50303568773351,24.665965796107912,21.32480709350404,25.557306859498453,27.05689450082436,20.612156837903925,20.846542382087417,20.13664264361902,20.93917087273521,27.40374964747079,24.992587594980627,24.68422854320379,22.287616797057257,22.79273864310763,17.75422281377456,25.231330494796236,21.49857687936302,17.896764717578492,25.260842653567945,20.052388366954105,22.295294694822402,22.90325760634208,24.05489184572081,25.47374934548311,19.892571988022517,23.16515233932005,24.66581834540435,25.140628177183878,24.354007231832618,37.5958198483503,20.310298507862527,34.32446920693134,24.28629125788536,23.526977173349316,21.977405598192206,26.05719896391305,23.49149501237007,26.482432985268236,25.449061688756053,24.743499574501705,20.99597915306135,24.54140929325348,17.846064577120593,7.140663753860969,19.531536105385207,21.029910519046933,21.478273992872573,20.228395420316634,18.884930129513933,20.598737855191235,19.63595980020662,19.597783016409764,21.716454614885446,19.760136452846734,19.49634495676244,18.453469488558465,21.696019774699874,20.127278338266674,18.75926591474265,20.675411478681628,20.32205679660573,21.83664423736486,17.34858068569466,20.77621927930655,19.188384796817076,21.81923597937006,20.385963819681724,22.480004976281652,17.35607290819833,21.655114381703005,20.186924255291284,19.752708582751616,20.272844495527895,18.433047428236286,18.587250084328385,20.653133472987566,18.240069213493435,20.928861299483817,18.871712456566645,19.266928919908025,22.42370826419808,22.914180106080174,20.493264066013385,18.812147958392494,19.807791355228225,22.104627199682678,20.698543038974417,19.70397624332193,21.00119169336126,19.962302731450496,22.11245569058862,19.48330243104404,20.416156978874362,20.649989994369292,20.326737574652103,21.539745213772875,23.112310391878896,15.451832959970037,15.312062694738923,54.02225230434182,52.66636380774244,51.646998602015266,43.39458049695221,46.56678337231332,45.62020614119465,45.383775833107805,38.177809064982384,44.58299368956024,36.02864089048643,40.28000661114831,39.51393785650977,39.406920552470716,39.61254070785521,38.33038332016078,37.65449641051703,36.68462929471077,40.280934011611826,34.93047272604466,33.84204415932523,35.49076284690893,33.69301685345191,35.02529258443468,36.255978974820785,40.781090989830574,33.53559617804734,39.36268530418667,37.41207612659724,34.56193388608474,33.84291902725605,33.24696554313766,39.04391610207596,31.67616141432188,32.627428933784664,31.916598833989973,33.055692290022385,33.21415086208427,31.906634328181134,40.54427564557398,31.563138728049488,31.822958362183584,32.840318338197044,32.43982325565214,38.8143384393236,31.682265329461377,31.44644180266208,38.530521520915656,32.82078048919957,32.98776125482734,31.637424611387807,32.86743783667539,38.75076978649381,32.5006688875274,31.702821309226266,32.403716442006576,25.574506996043713,29.776447837082745,28.810235240350906,28.21026078040164,28.675240670572624,27.87143494393751,29.01826328631679,30.95911009445428,29.82371002369039,28.09872431461598,35.625986264541126,28.532570361848954,26.114313075225915,29.16592398874914,28.653369692677746,26.30267467460504,29.46429847992415,28.708062044241643,30.04712813173971,29.950729244282837,28.174465160201798,31.147622507579193,31.425219281192533,29.200960690009254,30.214315723340505,23.791049765904482,30.418263773572814,25.83599547457271,27.307642738648294,19.84326527012604,17.170173333664525,16.559021493819127,8.051127456874472,6.931190007324792,6.3577907029404335,8.303460515308817,8.586589842229763,26.559558603854608,22.278348769025083,21.48241916914563,28.468486742077207,28.45571677860594,41.65598171410509,30.64170168292382,32.515298827609655,34.54482287969016,37.31939181099133,37.80595121550746,37.81843296124417,33.951977999054726,35.72892143228836,34.53092399727058,37.30454181503757,35.70287908637167,31.33193452283388,26.329387475365653,19.076939733899078,21.46455763152167,21.467483891097913,28.305439329067717,25.981903184758103,19.658156543559894,31.28264001744715,28.551615830176946,29.46406100326255,24.64709796164119,28.983603164135808,29.161699751327916,26.67216159042437,27.561558116382905,25.51897796542962,27.047203812545607,30.074717468061436,23.148885095180063,31.517574566394483,22.29823343639106,22.20192586153296,25.801491580610403,23.171309118728782,21.53235175675004,23.221417466298643,20.024561385479224,21.4768099276645,20.49419707392788,22.68007397438474,21.266424274948474,23.387457418883933,17.493108607787175,24.011611451083493,17.229189063945316,21.00625823941197,17.148587802898653,21.232530834416913,21.233711609413234,21.77220271502349,20.925918742118135,24.374165365999485,18.87649263208946,20.043285093979623,19.19466742085159,23.143178222391388,21.863137063095216,20.313365581440674,19.40177683729702,24.69839868656371,23.730358923945513,26.93264330844186,23.247322417055912,19.842497029045486,17.254514049559038
P05,108.31472622172832,105.85218107109313,189.33500518463762,104.45101027579021,90.16969887625774,82.31598965894193,79.87738218211416,77.0487763140767,72.89214155285424,72.82388945699068,64.1717987015301,63.96319857776036,61.55257027148018,55.772079217549816,53.036642536603,47.83726588654394,41.85578638501167,41.4921617602888,37.285712337898765,34.35619361873434,31.96841387267733,26.006674911551418,24.38834644465209,23.372785571782973,23.47189958091342,23.03965209255415,26.081789634925393,24.252063282150587,29.857022387317905,33.38847375523251,33.82531449099279,35.94679504115573,37.46985575531994,39.21113346746003,46.42297812758946,45.44920385405926,48.33764564030455,49.415907975100325,57.07523085351309,51.626654565123395,57.6204654479148,61.10797826451481,57.046012927143394,62.59079660088565,61.994082332093086,65.91223901838542,69.1401395347392,67.45404312920043,69.07463258758955,69.86278489075882,71.31919398721202,58.87944416399896,64.76929006978233,67.8212417260639,71.06290878709,28.678804152080012,24.37973135756036,34.33253029925806,26.07282180832455,20.24492332311451,23.457362825585875,23.341055536044486,21.091435551513417,23.915153713843715,22.646251756256454,21.26874611395805,22.57008711654293,20.98760938853639,26.014938624086,21.85499057156556,22.693125348548826,20.98974249558552,27.112712482233892,23.770842249126694,25.37986570232859,23.958597963420978,23.797033288547805,24.606815906753102,21.09697545018924,24.43256497489057,19.394888698122937,20.883871304110425,22.33452112574972,22.2880611838853,23.907503961818815,22.169658091264232,24.912567962842154,29.001846737781676,26.84752411401071,21.81781816101718,18.241320461795862,22.69854866988992,20.73489031708666,20.16645188156194,21.2198019318617,26.93243015217447,22.813432043234247,25.575519384022428,23.958172639814272,26.41830612460357,25.745351650774595,28.6569206171918,27.643076149657748,26.773732647763588,21.851599807898094,23.500906085029655,23.730105541574684,24.504066685167924,26.496179709916568,24.995157214551455,55.30053090779746,56.06260441940764,77.4749223478224,286.91667458713016,96.55223015608664,154.93598846121577,59.48068547376983,81.92704734374489,85.97716179900053,107.80348679469343,115.37600887557699,59.30887007982888,71.48621420818708,106.10473477946998,33.446822272814515,17.130328625096688,27.47738063909591,32.51829735039305,55.30500213987926,62.79365682547275,18.444888522132086,15.127369166599278,20.58349302380063,55.80451815309767,20.04194932197455,22.830308442517886,29.635042326103985,28.82571527455685,28.86565398339867,17.464695989218583,16.73708649487946,20.42979965715529,24.18779155387631,26.41439257571903,27.723764507197014,28.396669225866926,41.99430498374622,25.208568294274087,24.587200028928944,18.952732743810866,34.723895298063546,18.64564095721053,35.475078493101115,25.83508369259433,35.317531481340566,41.167707936091176,18.831326179686837,30.53135003071571,33.32754667879312,25.913798748879938,39.42399024145483,55.84316574342067,14.944507665512877,28.359261143033194,24.02506606125834,41.07319767856164,37.04195683140085,40.77156483781786,43.356014987740394,34.27683407536502,30.729871663258375,44.96927190011126,45.26494444971799,36.40776167409647,31.878195847309048,34.663229822005505,37.24528801020063,43.84269428999747,37.45144964567712,32.461249570102034,43.540572497775884,33.91678438984166,42.64308730281757,41.583116247572384,43.883004400762275,44.562798112505895,37.07232443912302,39.91529261191054,34.472311213789744,42.97390860472363,37.52073145089464,33.85631672742321,42.235569878417074,35.29355858919345,43.133016074138524,42.28122949928644,33.234598915905444,43.99818615193488,36.41324532780498,43.24396593146675,46.548967050872236,34.845936805254574,45.396440025518665,35.37276869908017,40.11994732677091,37.751675228254854,37.61775042360883,42.01433139897344,39.17806936477568,34.62774316870965,45.04630426373425,36.17608085373764,44.51441830191326,42.92605013495305,35.26640061775405,43.514078735904185,36.534057691889835,43.93737149605185,41.513483236216736,33.1784964185811,33.34623568838119,42.706973830605115,30.136195662314822,37.08016082063822,38.24653066202394,35.1016509340232,28.877889872374613,33.28077978823222,33.053980494376944,36.61492448009143,34.213368018190195,34.214160303657735,33.08654785450718,34.61254878972893,40.241458717751435,35.474422197798205,34.78127075156521,38.785533561758236,25.264474903038746,38.95392754921138,34.89516730395071,38.40768810053923,31.60962380891997,39.184651052601005,44.03629164665224,31.13358767203718,38.72805195841481,39.288246094771395,38.99853544596047,37.26927423206171,35.39114709126735,34.534627453319715,38.456229741961906,37.42277953054702,35.053903147554536,38.02956195102274,34.9525720533522,39.3022402901798,35.695769211240496,39.70161634424819,39.934585215947976,39.14015130657102,40.302661905318814,39.2135626312958,39.537759033746084,39.25692288241584,34.50388963305098,41.14084753421969,36.45458051088406,39.05698185873935,36.57672181647539,37.781292418136395,39.150411360514326,38.57670792986906,33.43827094336307
P06,16.780962472126923,18.975435362054107,18.474365467936938,20.779129363859806,19.669237581885156,21.632799695004785,21.00060511172326,25.035227231769127,23.327088081690317,20.434362128967035,18.70075803962828,19.508040906430963,22.95637959204654,24.87960742221463,20.54773022872848,24.416523721362527,18.35849293253944,17.059429067771205,16.43646625161441,15.55719633902986,19.692239535089723,19.6656873209723,19.778684756335142,13.578326791867331,12.995302093816584,12.847793988888974,12.285993460963304,20.323280722975106,20.431951855022877,20.557227972837286,21.18882761145643,24.297959199550142,21.736443442421425,14.462942504162129,15.474910062326105,19.974084444158947,24.343370962552846,19.90465865478409,21.479201421546108,20.813683961397302,18.654988698629303,20.424407209958154,23.213951533659497,23.448750409049932,22.289770862174798,19.815219730237246,20.267211809703205,24.709608891922457,25.946065403921548,23.34438469063445,22.982878869897,21.76338697297295,20.854103914359076,23.090209880106308,19.779424991785614,15.375749343354167,10.41742769813217,10.23083468821264,12.742127666194863,13.278404476973542,11.285737066547501,15.214584920504766,12.876158883868356,16.338200912467286,14.063648951611386,13.985985324371443,11.322179509363279,11.308727375405091,11.046776075016217,16.677655256802492,12.42020523092008,14.02822866134607,15.12692090233363,17.577912687414496,13.146658431941427,14.930367145448024,13.072817027387272,14.617796864376093,14.668637917739147,13.834399310574428,15.764793834963386,12.161768901856941,15.487747731742381,12.890976410946413,11.656402465736951,14.39447328774127,12.55769117452308,13.887464443285026,13.63594470762365,16.676245389273443,13.343946759625275,16.09147298245553,15.35509137230492,16.703512768061056,17.78875158935511,10.799472438542997,17.436105479218067,11.45230277550378,15.350144748169408,16.9936876204059,17.96781344703278,18.880925908681682,19.06604028818039,14.029024665691376,15.268729668751762,18.249508121826317,15.292353208559438,15.50429313577465,14.673800783945918,10.865570415184077,15.73863935178448,15.564170935562567,16.28486944421678,16.981420314313397,19.668212651730396,16.018785902071397,16.785495916291925,15.772223656397797,15.139808578578505,18.18610341213037,14.85625502423323,13.578612569444358,12.652554582414467,14.00147243421153,13.683439971644711,13.902508570943416,15.151075816002601,12.628738821745037,14.855445033785939,16.575579124108216,12.704635968501119,9.867042695736256,14.194821400400883,13.531039021782373,14.949907763255842,13.394430809077681,11.868590652956835,13.913426326895515,11.78823620764374,13.969976057644269,12.64281525359343,14.846638668329751,12.999388938289794,11.18726559326511,12.655858304053476,14.329427710249824,12.555172131540457,11.439520393734428,13.16630553725402,12.670152943019264,10.967505504823825,11.004074800583608,12.83582794206754,11.497016640574508,10.211878453008715,11.121488303565744,14.57378002822971,10.845504424167522,12.745564124157527,13.33650873652922,10.913091159652069,13.554307570068525,12.8110829776259,12.318412677941247,12.975676214203357,25.332823617345014,17.033316279248854,20.158123522843603,26.548491961818677,20.12725165126426,21.70767576171881,22.446040114011,20.29575304265769,20.577425093526212,19.063724700874044,20.8556983672104,22.863527939662923,23.22242515710888,24.73364731882703,21.398187881322244,20.397504569322845,22.0948038264223,23.673273645560325,23.82878319585864,20.106664782379735,26.776863028269023,23.522818511577743,23.266513931641217,34.228043692944986,24.003986126757482,22.981161931173727,22.2076612384249,21.53711588754216,24.38400230474301,24.105276042497742,20.405778591868216,23.558974712843792,26.488752755829868,22.610277315058504,22.78314684946512,20.497561664245193,19.427313487966327,22.957088260444003,22.026979980998224,20.304011552663088,25.52984089233464,24.569740399763763,20.197908580197616,25.763149362183288,24.17068229721255,21.55414273783985,22.09308102804608,27.76009595238355,22.39909695987823,20.342539150134193,25.067602369584893,25.367037321728677,22.323523495608722,25.71214367859538,21.602299755351385,21.61790956927257,19.052626151936632,25.024040534242552,24.360763648630247,22.76863748670859,21.867686238049956,20.583673760683695,23.332068895824136,22.434263877495702,18.557428636979974,21.87811173365276,31.132127267203554,21.57963297574743,29.87207833233796,18.883673023735703,21.71345352111533,18.966621743423392,21.857839532697938,14.526748208710632,18.32217803716309,19.70786283260302,19.04988821085498,19.052048283561167,20.33640662250227,19.809563188336345,21.8602753846556,19.956682527027606,14.008976946002061,22.200974110105697,18.238139525375225,18.583759900796444,26.37344670197387,30.369727134957024,20.566918639874157,24.99102532636526,21.868036165967084,19.462717674301587,18.01241470730679,19.350796356206004,22.259977998603972,22.82476973463324,23.544142100331996,25.914139425617005,22.711603316875678,23.368156472418914,34.79515311855805,21.868374020132897,39.35555677312544,33.21757724269839,20.05092981936096,25.839997368636773,22.083238599573928,28.898200969595486,28.683592065885403,22.54842423571345
P07,18.30205781504404,18.34767852287292,19.25546273322502,19.411590526882538,19.587985353949044,18.965852632854464,20.138197202470437,18.983991224298684,20.347884323871636,20.63454179913269,21.853433253733527,25.180895969986423,21.70080803703455,29.50261101813369,27.164276827857034,29.791312490152052,26.846678443872882,34.00742273663517,34.891831485396146,33.029070346853544,29.60650232457072,29.41678460766635,22.753353939045297,27.12132304816508,25.019631074485613,16.740825994858902,19.2624200083668,20.40851086337065,19.261209623856036,17.481531925817222,18.747078081705624,19.7304499584076,19.629007274040283,18.978016745997213,19.272615877363563,19.629702760841,19.77863059856964,20.02044673820944,20.529623947226145,19.491226781382153,23.092274907510365,21.442430902057925,23.392650697233265,26.036682978713507,28.61338283843441,30.1391601732517,29.21900301039195,30.63401169402705,27.396461133160724,34.286871278088405,30.564529665859194,28.151790567344257,31.02450271360417,28.548471088925478,31.536087208199437,41.3408346395202,48.139107821712585,48.3925290007147,37.66881343796577,32.063734263172265,38.58276742017283,36.9336458926799,30.964962182225097,30.682881449981696,29.69148960164444,49.89522826141125,31.082211817483735,44.924750724532664,31.78868224423881,33.98104018924046,29.041602476444424,34.572214803030995,31.550287585415106,27.723732656708588,29.64433495037276,26.86269994531331,24.722163580933234,30.066963425140127,29.50968574563048,26.846154564667582,27.929178799939034,26.798775556042276,23.579498004536624,30.842305560060055,26.880053775245045,28.610844310991002,23.744222689720736,30.90463787383938,17.566240737475912,17.979497342590424,19.19138034135798,28.37626671092877,20.504788002324506,18.259208574677743,18.154231699821327,19.931035671795698,20.72401172533112,48.86375466999085,36.094005005524245,19.95761031453125,51.94883168855548,14.182655712977953,10.948145683701329,18.035900445867775,24.382230355888694,40.0485499297912,42.90243200845082,36.83060533768264,35.947724731423,29.807311884100574,45.833945887726394,54.58623235242993,47.80494425443398,39.49443602930038,55.53268934880886,40.21589064763409,45.31073455880972,47.9836312621962,49.371308572681876,76.83230435786611,47.67448332115595,61.595021810745294,65.64350356302684,42.73082903582508,43.54770994325763,38.61740386357416,49.297555862009574,44.334920952544984,42.19737701791487,42.49297134200409,46.25007875681159,39.900340697155194,42.995071049618886,35.0965389354514,43.869326749188005,34.39311096668675,41.63556126520792,37.782748522439974,43.702235074030604,31.842183099692107,30.92946937665115,44.38763066554345,35.2254170133775,33.51175307003233,41.24834605915406,33.71922725080318,34.2156289770255,36.96879769182791,46.08432717549637,34.74173528768118,37.19600129278238,41.89990655795551,38.18186743754322,43.74585617806944,43.45257915793317,42.28419072529997,43.35890166487938,41.11183908246026,45.120917667383885,45.939441921707584,45.49775289618285,46.97138792937459,47.3625639290476,43.210711746053306,35.87210067022249,31.620102609335966,34.86089837743279,31.618462135444958,34.522150184032014,40.853158179927256,39.88526044843528,33.83613081319263,34.43375835152144,35.64323685558959,40.723765659650915,36.82284527595977,38.447547888372156,40.11082707276679,35.71958132077055,41.11904059033106,44.186039833288525,30.407179883639987,32.64935545336492,31.209686883920295,33.323213115254674,38.162680052531925,34.18332820124511,30.515179479197545,36.88096305593656,36.54268363646818,43.68294856550901,34.32946561913963,43.118163915394526,44.29787153383006,32.3383283714091,50.21461527988038,42.23314247613719,37.63262173577565,28.886856172901236,30.683353098070818,33.77983253263455,31.998137317647856,29.167303070039445,27.563151314635842,26.698693357926924,32.77424895482859,32.271299851541706,46.101605124392,38.7365349734466,37.940416024748714,39.04082597734467,47.605064653556056,43.165310102175724,41.705595256217116,40.33296245277635,40.405209933901226,40.39623984370132,39.63562130958398,54.1047168265375,42.65537121104206,21.914440675084638,22.91915677379517,24.113253328080372,22.185821703755945,23.99237202608432,22.40638339233612,22.55986620817995,19.965817665985984,22.91880165269238,17.787987894137782,19.77849072956747,22.68616077636221,24.231316697616627,25.369770825010214,22.667102256696545,19.631853251962234,21.402760475801383,22.28288465618031,20.440018626850364,19.86970275434594,25.730697516620758,24.311124686892388,22.128112080849302,21.011287271505086,23.12145850469451,22.752802867957463,26.41547834775522,20.2900536942122,19.739940825134134,22.897505786139003,21.097716259769825,23.730358138917047,22.19671984630319,19.190824900743905,20.84668425958591,19.722103570179847,18.251502646305372,19.37674050581895,19.097110964677693,19.70258084455859,18.955933448578357,19.750205091756317,23.26786308986766,23.28729795947512,19.5252117638206,21.237961709641933,21.46875717270385,22.513145476877007,18.216460788945927,20.16599282808137,21.180966369688154,22.090117805262548,16.81084395905367,20.908176472382593,18.111857396548636
P08,45.237836777163764,39.38596198791103,38.451823066470205,44.64432792271799,47.62959615132307,47.96626317099015,49.02313544004125,49.708775131583415,48.43064265182587,44.839672503397,60.98663871866481,46.2399526290227,52.10207152580901,55.05604984576798,57.73332211850511,47.708049434344424,42.34501617360437,46.15071023717124,44.91579967696492,47.48528445055146,47.85159069792037,49.68280110844343,44.493293624383405,45.57886971240014,48.342538012644425,43.774968906556836,42.10752187628876,45.11233353424891,48.04488273492873,49.52063616334236,44.285791556251475,46.91642588705098,46.47652596011726,47.887532700208894,45.72837823956567,47.03043830342055,42.761399204435214,42.1224857838845,46.438502239872804,39.43867316386185,32.47666448326131,48.97660432764269,45.954827359740484,45.02934347879726,31.471294538274037,40.88672664649586,44.389792319807974,31.52548904716555,41.86210742634753,20.664299488200122,42.602696831460484,23.148789571456643,36.25621115170848,34.629971837395345,34.510155749478145,21.433183602744716,25.7094935554634,24.12649482126553,22.50610473702974,20.393453628046693,31.82775761650103,24.970960217261585,20.16006557932415,26.000837591255195,26.86044753487641,25.27225226148774,28.482750592527672,27.43929098888908,27.188734827541495,27.75888450782105,28.690584681033137,21.078169383094572,27.39460565807927,30.70453544357874,24.939307473277143,29.106380999918187,28.272199420870646,25.88546950300248,30.32168159872175,26.72671017329696,24.472602924316647,25.256792068418456,28.022644579785553,22.19469971910437,24.80696145043226,23.584589939430515,24.45030676594666,22.86293204775201,29.210337305102385,28.45662683790059,23.69856246983681,25.15184765339092,26.95565216773592,24.38972688390061,30.015772306311135,23.706042167289272,24.273486314421394,29.953625559225937,26.666671908756957,31.23909064498147,27.647371062982383,25.343465181521434,29.262948607401743,29.43187125078264,21.968233960814256,27.806822966885974,28.423237079531564,33.276705882488294,25.061595728670817,28.899947639987968,54.725740810740895,36.44246688961734,57.93906656358415,60.30888650882113,59.010512263554105,54.97425851352506,53.02194693637602,56.790055888514665,49.07149869649163,49.26087775819565,48.0641421047415,52.935511333731164,51.92350271480899,54.2712160807389,50.78508671285151,59.04571345996401,49.51287615193555,49.29183622967178,49.65200300229319,52.66645843884112,60.388239386950374,50.98846926370879,37.93444864290054,49.641394869099315,60.15295564009133,71.30824936150425,54.6231784277585,56.51590744600405,50.83261333935689,49.94509362113141,42.005987429947865,49.265618640065014,51.462570818808615,47.35746669189521,41.474318125193506,52.49828910931122,46.11184198816369,45.222291978204616,49.45060000276612,40.53877966758946,51.84534732674076,50.75642014072989,50.97410253731626,48.72461220716281,42.85046163507113,43.34633856634269,46.8453118714554,36.854886452025916,46.12677600810615,49.87614781811751,51.355500697400956,51.21690505601679,47.92855585527187,51.038172888181364,42.960389618189495,41.52496599908851,50.294890193295394,47.93574649250158,38.200311920878896,49.346142396318214,45.65848111043456,39.02726659873293,45.419698597401755,58.04468603955302,51.56590527768477,57.38384852554847,56.71867732360817,52.43626067927269,57.46141162253599,49.03191053955745,49.701064685398116,46.898582735905705,48.88495222572251,49.05448710181354,38.93401563082661,40.599716491747614,50.500921636757255,37.10191565060187,50.065551767190506,35.37755704716012,49.7871054918373,48.88900322779262,50.7181033871181,51.76018886831271,51.35713347623291,40.85760029773082,50.128582308564994,49.44986438961626,50.87588730522678,51.03097557414444,49.67179517149098,38.19209460666389,50.12924819322663,50.64348550796332,49.61263124735949,39.70754487741957,43.037773133948896,52.3205206886872,59.92840591226342,51.28022016872002,60.20572622878578,52.90649294532716,50.95309893861348,51.890920646070114,61.349515388316924,59.44590561036685,59.90873040844582,69.54705321058537,67.38422841398707,58.6969998699787,13.676506644782599,16.90198114663403,7.337880201415691,14.247311045792003,9.281222032997988,13.249700601656881,5.82658743556995,9.251048749913858,13.973622312851584,13.366576990778276,14.605600384313508,14.596470691812186,14.28551359611426,6.673939725764437,13.80772040384359,14.271484879527222,6.163129909184678,15.064512227941123,10.411229911911052,6.111935698551037,14.991769413864919,16.658335126065708,14.212187482943534,17.74284394077745,25.98046128300627,26.77205466435225,18.46363459908813,25.078844982396586,28.256444300817762,26.72985621273047,18.078182599471916,29.657994973418944,25.99072670539923,31.502924474971906,19.0335603799297,29.30868649929518,31.41551171696838,39.0825755828584,17.3337533951084,28.776594601175283,43.913330549925135,24.664174299727364,26.903708119142355,28.68170885683771,27.704442300376375,30.196932894936264,27.802858783514303,26.88675176949365,25.062091202004165,31.455467800841465,27.840355094567094,19.572435310984535,25.290023102133716,24.352527081041696,28.357558796891613
P09,17.37843107504942,16.19393022216312,17.383044970468557,14.147296750566506,16.396356865545282,17.669085439160465,19.375621647754716,18.202096481422824,15.196123091600503,17.863465303862448,17.444880305349766,15.962784583308718,16.212302478472292,19.92010693652746,17.428956812023547,11.808798899803598,13.838997357253323,13.876178777269248,17.09140250227144,17.086885205038318,16.445160075874153,17.936348394872102,13.899102787235535,9.002141354360532,17.37002532943162,14.51237204730467,16.675854623675004,17.579385954507167,16.6046034963132,15.624894239906874,16.262251810280798,14.894014729395817,16.772497946802655,16.918967034550498,14.97007662099844,17.115962300908354,14.939005107548336,16.030057758941336,14.95908231402116,12.927152591011149,14.021138144030495,15.807326444037665,13.918495815617218,18.439822362217253,13.815144167770265,17.42007718466101,16.79960000622928,16.256209814393983,17.151209348756556,13.979852891027935,15.999600199494585,17.21244672354839,16.857236943569806,16.650871041613538,16.468999587806824,13.220724457036628,13.477617347509927,13.080475161625436,14.492623177110374,13.607438755171962,15.552783139721981,14.585773433735655,15.525463850289864,15.017144351782251,17.416127126780875,14.792418152381968,14.516535099392158,15.254498905772666,14.412205715021324,15.079794277285448,14.373208000904183,11.73123121138028,16.203384460175766,13.981241439489834,17.29970019052191,15.217960714540766,14.802046869879455,14.921099654242049,13.764447165415067,15.846535611480046,15.379027862358281,14.34444636551267,16.59068307063661,12.901938716890532,14.6074814965873,16.79022733247625,15.063275232042,15.418746565705117,14.449269562778731,15.303097655025741,13.689924954711305,13.782386447823512,14.832835718902084,13.866576592077747,13.786513373391626,12.423663308013392,14.031240031626368,12.636436594995724,13.402101669618016,13.869492505318792,13.842735711850315,13.897711349201906,13.385224056137933,13.348577073675123,13.75002809088931,12.613235494702806,14.215505240021557,16.31447971821053,15.05328699806597,10.77292639281306,31.30184305037022,31.089138329606076,36.37041528749975,35.21725211931583,43.33986448257441,40.06405386326334,37.94331938491402,35.020866110905786,29.61233296402774,30.807762856531337,38.32413098511918,45.65838671097992,32.98047410697608,32.231956893828624,30.41270339584668,34.836120684928076,49.42653080812994,32.56310033325996,32.66145789145163,34.269539398253485,35.33360478187452,28.230935019462283,34.17529685567565,32.09543238330624,31.336452923872226,32.2885037264741,35.90769328367643,31.51589273809132,58.9229415084679,39.99149211658846,31.845899009666397,37.333164077539294,34.07770657107393,27.160013207106523,36.35424785584673,32.132088692080984,37.51759814634259,34.20119602725966,28.449108374086528,26.66409061897627,28.808334077436662,30.75036197808023,34.683274712674766,24.030640402604785,28.373761901315827,35.78875969784842,23.70077919525492,22.77179658820834,33.60217273836552,24.73588415140977,26.757592199935228,37.12431268810668,43.62200540993622,50.00899063521523,55.09133211257635,96.8880357989579,43.43412562871901,35.208952916347535,27.52494024842236,29.76093733424149,27.94745797415686,28.484048581106816,30.38646988387118,25.959200596049254,28.08363195911421,59.91485845613656,60.75224849282967,118.23060438682994,97.77655722156786,69.83072238611577,29.108271741542637,39.081322906586344,38.099973941986306,35.6377282533442,37.63196580830453,30.773090069701762,30.023925299413005,25.962366044362074,25.62212298561212,28.680969815159024,25.203782452938587,25.30253656615255,22.7542306254668,21.678714427049513,23.0854707251914,27.33565785918891,26.18695508518772,26.102620207277834,20.202220074922113,28.142218275931263,25.710251906893806,32.21603000684509,31.0706991607693,28.319964378812454,28.060756725003095,26.910286833320942,23.678142090332013,21.3323208330702,26.320323007135638,20.43143874125338,23.1383053985411,20.351989187217203,23.85969369924634,25.249194793493622,24.693997968500724,22.49433311302681,26.104357564145648,25.681849542017538,25.156645176823154,20.896168488103964,16.344467948043263,15.498569992087551,14.226353678603317,15.353725677804235,15.037200604531343,12.934871138641238,14.446005622486162,14.173607803884321,13.339577992101798,12.043838071555909,15.353077871734861,15.845594995103534,13.741326399269383,13.05981044513083,11.919172289006138,12.469842321175252,13.869953158247702,12.86031086051546,13.163494915517376,14.773346465860664,12.95806374594557,14.314998357183105,14.264942803159833,13.290459042211506,11.076218945308641,13.93895036999413,13.115191767930687,12.95191384357386,13.976962489465993,13.644322670876543,11.887187734329334,11.879069998307143,10.51209086512557,13.642656502102632,12.32385047757356,14.200835903496234,12.9594985731636,13.230842730335505,11.839955487340115,14.483370605427398,13.69614299789986,12.27872261666219,13.640188871305178,12.83272520657603,13.451380254157522,12.378314857988139,12.687879005896907,12.837930503436922,13.62331176413249,11.350109790614388,7.806479384866336,25.307171845137606,20.89000960930515,15.911497425898359,22.22198647001833
P10,8.60576111766573,9.599759131299685,10.658924630397028,8.864692544133481,7.1549986285586495,7.837376702096938,8.092748943677929,9.706062595936192,10.806458870091323,11.333040828851592,11.73213648610868,11.53165171724574,10.88602154095546,9.754085245673897,12.436734077668117,11.261727483678932,10.929246341093473,11.618914557550834,11.149237175173818,12.333678402113136,12.84390726903213,12.38636408751246,12.423905771203874,11.20679879218009,13.521209508124626,11.384621864028267,11.758937767422918,11.769228674398159,11.917493724508734,11.343948021854535,10.71516208631437,11.813379330772435,10.91265489019122,11.240320701479687,11.83284850126433,11.999780644196884,13.228309733190935,11.725324382467361,11.18733048027402,12.660729626714863,10.655964774775885,11.520316658298427,10.70156640077762,12.087603509886101,10.66166496426693,10.951600511373407,10.962927033155763,10.658345472565445,11.205736590664355,12.356350533531398,10.441659030373508,12.102005502761862,11.41102284837796,11.372938412620336,11.885898892484098,31.48949481445592,28.70703127222579,26.504053394996397,23.52887563092696,22.249507630659554,21.122197584168887,17.76926792964591,17.168389959289417,16.06371705574784,14.438675831944042,11.873500044241206,13.752659062500056,17.25849476430188,16.04612173199311,15.986038949417525,15.518997001275292,13.12545540665225,13.147649076762917,12.505412881156413,12.668667258322252,10.60263521915906,11.205439063096538,10.882613282883872,10.766341036840084,10.975181572277892,10.319342889176582,9.071737320863301,10.552691995115145,10.878880603465827,11.449853142558773,11.470170768231219,10.426392828556066,11.955299966556096,9.578181419782362,11.237277914855078,9.58466495855959,10.20240791284888,9.540830278662394,10.199205438008061,10.381661304133377,9.773623671542106,10.436365916974632,10.855200750467462,10.284981936274454,10.417473179293648,9.94850453437831,11.466490015535586,10.995898406535803,9.856197962117934,10.5081252257408,9.701931091397414,9.821703485080564,9.515093352448151,9.863347181659616,10.614785816728586,17.50535429351792,15.872422363755776,16.015260930476096,16.27297317296431,16.13564322952597,14.464923948969599,15.275397594288123,15.047737393249662,14.479313168583753,13.991298857780418,14.148612161786144,12.82089640415678,12.974573607751932,14.23294669383281,13.59084163490448,12.161058702469916,13.518680619329999,13.318069396919043,13.620831693191127,14.129874339082011,13.480622830018827,14.328644623950622,14.165176973100516,13.514279564778706,13.869300879223168,14.10764216466932,12.961514768118787,12.706938999566153,13.538634958408151,13.034822356852082,13.153501870476347,13.284971349241674,13.25161406895877,12.991860476728705,11.649114572984093,12.119039412903934,12.093438138839863,11.797934131492333,12.004132964201137,12.140247463786366,12.416164905834949,12.54040481659536,9.994855111644103,11.89479501521415,11.029823430148182,10.962561456773585,11.342273239599084,12.607022195876915,12.248609763122888,10.903293000500742,12.029567190790733,11.365578027365418,11.99206468211992,12.534006490886345,10.983412681787174,20.199433123512986,20.223786144863066,19.359583424872124,18.076743492211317,17.52018380131411,17.12401082898021,16.493944478841335,15.892289965736923,16.133326123462066,15.234405209885253,15.103706465640274,15.34278935080521,15.266671953656553,15.014567703162466,13.634643961472184,13.242341222593614,12.690871734120128,13.386663011281984,14.722339563554076,14.537364129280952,15.270229637558897,15.678937654046816,15.750993246901958,16.970955221036398,16.854293867263067,17.95031634411555,17.29623489578237,17.131369318395695,16.982842947159515,16.98810093015476,15.88542296102117,15.351167701896292,15.171059957668746,16.179750462127085,16.42670882996116,16.940570815589137,17.14923191143553,17.92761443718319,17.587621590937403,16.366900677440533,16.788937619832133,15.100488124547123,15.836578617651707,15.591241465345533,14.935075154656175,14.75652178362188,14.343785576182889,13.477355506778856,13.29141093759381,11.98195500529742,12.04696228964284,12.094635142106528,11.767978731304481,11.42258357272425,11.012262886254097,11.51353040528043,11.448848095370717,12.448872193895554,11.504803273366777,10.52875489274835,11.095209673523684,11.479114593551284,11.300584139364476,9.409383191967898,10.103297576982012,9.354229974845234,10.660425831577655,7.843011441217245,9.026658951855449,7.427768372038089,8.579629646857661,8.391385404654308,7.9957512012316645,8.609060951488365,8.340462166272006,9.488197266883352,9.169923876455508,10.514397184139112,10.464658753002588,9.052323776425125,8.744461156293152,9.045487922685837,10.0099896870445,10.14890880520403,9.569242704055,9.06017478714335,9.306715836165035,9.559853292742643,10.33902975189095,11.198171317926297,9.465197627458132,9.515144125566419,10.388323623086924,9.27635008432401,9.464096903743055,7.98008406342287,8.471401625765411,8.73394653256659,7.720957849897985,7.9810306994732025,6.007921699039439,5.969430244458579,7.182241627612808,7.506665467542181,8.187386411436783,8.6152771321299,9.474031519844536,10.089265629456818,9.361651366010996,9.962316875789863
P11,40.821058502043996,39.17725413461222,48.52540263318159,71.52232506371604,67.97641140658361,73.61506488796732,55.44755071840213,55.40710925036655,47.26464274113827,36.30242689885025,40.22594262518107,38.99180380866746,30.63560975872393,31.589428149231743,35.10290552417658,31.197681886645746,28.381802650672686,33.74308811137976,26.63349903125599,31.095206543805435,26.139524143755406,24.613486604581986,24.242705927784527,25.869880633652958,23.3556267152168,22.8358256572656,20.531025350268806,23.518656738170804,21.769545243107892,19.9298661430843,20.495187393905923,19.57184896283627,18.662891267507273,17.419650025956173,18.671350360732838,21.046250197963968,19.709965540476965,20.196636317747323,18.156811160893895,20.42996910943455,19.19996371533407,19.451860186021097,18.857080408503506,19.364350208711116,19.556379886693733,22.00440104645732,19.702603725911644,17.955076525195317,20.803084089678613,20.996321930484743,20.42111960167276,18.94225690888766,19.402415788006994,17.57647731133809,22.09021742907418,30.08411237630331,29.312190005300593,25.67166734963021,26.957494895493213,27.853295936773893,27.327063382622345,26.115751985593366,20.529890001269994,20.88612248414123,16.941159934256564,19.603170691976185,18.225768281690293,20.68798577627868,19.409793977909445,16.805248917909697,15.573417597519098,14.53999480791008,14.610405480321086,12.071765561651535,12.78750244560326,11.964019555621046,12.825691100197345,11.647174022146963,12.751054248327693,12.589995930045218,11.18982099107532,12.578750712950846,11.56717680407564,11.120667277269002,10.934073071889319,11.347584633481578,12.72980712671324,12.148331039229262,11.61429256086896,10.4817592223968,10.563743660490163,13.6764407181438,11.170135190879176,11.121069924983365,10.369356648105162,16.384616014269792,13.33133368683021,13.36338652213843,19.388066972716835,37.97086837747602,37.02714167356493,31.84325339611391,29.346311536709454,27.58477846136209,21.187955583484992,21.51632674155187,18.303495389795987,16.39815244201655,14.960770555331212,14.494939948964015,43.59609642960155,42.77455321831679,46.30382631041634,44.968417893340835,43.28085843759429,46.03370179939221,39.103029328552424,39.719947345338845,43.01100080189783,40.13210205849794,41.540600607767594,43.27731291142283,39.215925392920724,36.17660042113442,43.029260334500584,40.42149460398997,47.997676620084434,40.66797469701706,44.92606273934808,41.44579614824409,43.0097106134241,39.57921948163526,42.49720879829667,37.87850297293969,37.296934721514134,41.07775126733254,41.656099136602045,34.050424330400254,37.586427009390675,32.016044460679154,34.50336472821871,34.774515550822805,33.41440899188941,34.77641001482516,34.79339688512975,38.43904135475195,39.859590207235634,37.8457635587397,35.996794072154835,40.41385991337597,36.85037105565063,40.22404908116756,37.30237877012255,39.92382904074746,36.74805270491831,39.1286586347081,40.044383021542956,35.633371811279844,37.596791839622945,32.445563200816345,41.493960530821816,36.52896684099118,39.67200872410397,37.38607666299927,39.55795125618507,30.356812516608287,28.05882863729857,29.810089504083997,35.821435960437825,28.67509830920282,35.827897542983834,37.35340174486407,29.466813343157472,34.508319457062164,31.49308819011397,35.609350602009656,32.31535138735042,36.49869380710766,30.006943698684783,36.41629648317372,36.082698004927714,34.54847396208517,36.759461969984024,33.827660789030304,30.356778683022288,37.47933712307159,36.859814176931735,34.03861639953595,38.780603157619275,31.66188557840771,39.51827828007818,35.29534757162352,35.03781072621498,30.451477329805115,35.58984886488465,35.11996590541809,36.156871327433024,35.10488417221621,28.893342320780082,34.202793562080586,28.26734380267729,34.469304737989475,36.036283862314676,26.03298930552439,19.152821745420116,20.33355915019544,20.446859079090558,21.642551759286743,20.555421681286393,19.938031034695825,23.030802559123632,21.869214657473158,21.353822194580776,20.748066959992315,22.89852548045763,31.57552483103909,33.48991726698901,31.286635668626598,43.73765849501583,38.94430310889226,36.25561972799727,33.31395793006625,36.93624884639661,33.70778058144292,36.19987521887854,38.126319029107044,42.88230288991467,35.46611917915059,30.635831667837707,26.525505795887693,27.65428916768158,27.517197191144064,24.887331043709327,25.822804441616952,23.773821526895528,20.500628679413943,18.338887760515746,20.12292659352492,24.779029105103298,25.126997835001834,21.236790703243532,25.219122185818087,25.131947166174196,25.35978730886598,22.946589322473486,22.718549757546914,25.40450513297481,23.164417653465563,26.197274584269394,21.904361973679865,24.6358041863908,23.378142862310007,23.59938136842844,22.793495961103606,24.160838823337503,24.119592635953797,20.289886531757304,21.50075506291763,20.17331762270789,20.46863732231225,19.716631265523407,21.389617924491272,20.54035538558492,21.400858591788385,21.351605348215845,20.407097912791937,21.25599084192213,21.774065946471968,22.105366264175636,21.49443505020272,18.386368156768366,19.418082540220063,21.21444977153917,20.097964400601708,21.367668110595773
P12,18.41873018931185,22.236876396882256,24.045965599184182,16.58897005994793,18.973212924987617,20.81514678749714,21.813782636224843,21.59084032012125,19.647841661357177,19.681008831332736,19.286716772403075,18.953367633524664,20.21251809754681,17.467632239849245,18.952047997084314,16.476516628242518,17.087784166667817,18.039455766866855,16.20184099305532,16.08867764105759,18.574666728870525,18.42221749287099,16.993874270977724,19.64067629597327,20.450989591653077,19.962276757107418,19.598855321777037,17.82174666869873,18.30647430329661,14.480244847576872,17.791557190503035,20.427031322154104,18.081228065872452,18.05573542167347,20.793037013006284,19.560854466383404,19.328064445178853,16.970663998892043,19.041855232933795,19.119826525797276,17.670693075260793,19.304637611871353,17.394396180708522,18.584699125024784,18.482890954840613,18.638016971296913,22.67678826269635,26.04621181094753,25.432316686138236,16.03295178184696,14.30739833271667,17.034081109355295,32.659864913551736,26.10717299144947,24.30510640995206,36.89069508972636,37.63317769181302,37.35691664690884,37.18798545549463,38.929089580259905,36.49130313513882,35.74895199842467,35.43942541789614,37.919155343653614,38.80753463989291,38.68236116728654,35.498238382391534,36.56701349393813,36.333762358169416,33.187340395288345,35.839166608734175,34.139649791795456,23.725291181144218,35.56476180444479,31.97532076942684,28.917001437946286,31.961073408069534,29.910420656589142,35.530440822753995,32.59280671702182,40.05291158063987,36.341745283708875,28.794630301928862,31.039851326201582,28.10391135482497,29.05949865986806,29.148856902513106,32.81802697506231,27.312541152820895,24.695353476957187,28.64800687826014,23.93784007610943,27.76990391940962,30.307318888110434,31.756734745102865,33.78117303279293,28.71313496338349,35.287477989008956,32.07825752511574,34.97591306469211,29.849255937884365,34.54353180581887,33.79216690272639,28.174560395139878,30.292299161646618,26.977158770229504,29.72951932238774,26.83843330219652,23.317592741208237,29.892696235988964,45.717511407540435,45.511837288584736,44.87462001958414,44.541234294841566,40.86734344797612,44.77704893625726,44.92444954772158,45.67231788340404,45.78145779280201,44.059038806467576,44.452939803933575,46.415924411349025,44.84441632743957,42.83460998704606,45.015348466535734,43.47615334249004,44.31048061301995,45.007770394393766,45.98167760060779,38.94565276594937,44.930377282715426,43.42599745087554,44.17302754395859,46.05878512347158,44.26813895557483,44.89458497745441,45.99012006025643,43.05227119250237,45.3927392646165,44.351385977953406,43.840607882959816,44.99790832356242,43.78456540675115,44.232644914152864,38.79410709088864,44.0815293020512,44.64575634692282,44.26292791856895,44.0284705803805,46.13531489696058,41.05320567606742,44.703561182981495,43.85498522827796,44.2727964667166,44.056364718112164,45.33585014659979,38.004441957045124,45.479195219080886,44.21885308321866,46.530693065038065,45.00435434990826,45.029478692212635,44.919547127068,44.381581903205785,44.75704153802508,23.384621490719677,25.665656042761746,28.49809051532555,24.11696719014799,26.794779408398465,26.197304972129132,25.956868444778614,29.004598835609695,30.57281803428401,29.789019615480985,26.00646460021407,28.85041606201046,28.068943088395077,29.868408275297963,27.774236456151847,27.43698198481062,24.303201108322998,25.042908635231473,25.0716211552284,23.159216123123542,27.39193339356179,28.935695673912146,24.797337648157402,24.870452995735658,25.95870071662406,22.05435528337766,25.545974588860663,28.36803929404292,22.52057346438864,23.711739589056556,22.037119739882613,27.11835086106449,22.88220793078,25.187701473460553,20.687031641338425,26.04799119233332,21.913823905714505,25.49861722690118,24.322414838754668,25.66342330430638,25.501795894192032,22.081926398001695,25.714436760097552,27.258855506017245,25.5944039659731,23.986838081925654,26.632030036229636,24.474919457424495,28.87975843957859,24.37519685965239,25.275591940568727,23.977009000568042,30.5497463431074,27.184358796024565,27.04575347663833,28.839269941475052,32.42461422607639,28.645121019255868,32.820724467236175,28.623627244509027,34.159217737936736,28.43983371329919,30.42653065746785,33.30605664529524,29.070269257865416,33.33769171313085,31.01374695113923,32.28191784664349,32.53315409828167,33.5802880523883,28.11134796666345,27.076096402462902,28.770283465530866,28.328559091658118,28.66521485298645,29.054269348430264,28.58922628691955,34.0944642552924,29.47496070202179,37.18366767311294,28.159578610797098,30.246383311727175,31.185106983135874,37.79811409826975,32.61403353885877,35.23181655505034,32.00105188212737,30.30374219776877,37.16739267593973,28.160777625027055,32.60237160991079,33.9495785611336,27.316748937420382,30.508890446295663,33.72368201734616,28.78591823439992,29.119750325503173,30.350854789953047,32.731942734283386,30.804675641352272,30.571846174362314,30.66370518831998,36.59693810255106,27.495694015139957,28.013715572852384,28.281840486837847,32.90134072877764,29.20916751344437,29.828986973152265,30.87081013426678
