,F01S01,F01S02,F01S03,F01S04,F01S05,F01S06,F01S07,F01S08,F01S09,F01S10,F01S11,F01S12,F01S13,F01S14,F01S15,F01S16,F01S17,F01S18,F01S19,F01S20,F01S21,F01S22,F01S23,F01S24,F01S25,F01S26,F01S27,F01S28,F01S29,F01S30,F01S31,F01S32,F01S33,F01S34,F01S35,F01S36,F01S37,F01S38,F01S39,F01S40,F01S41,F01S42,F01S43,F01S44,F01S45,F01S46,F01S47,F01S48,F01S49,F01S50,F01S51,F01S52,F01S53,F01S54,F01S55,F02S01,F02S02,F02S03,F02S04,F02S05,F02S06,F02S07,F02S08,F02S09,F02S10,F02S11,F02S12,F02S13,F02S14,F02S15,F02S16,F02S17,F02S18,F02S19,F02S20,F02S21,F02S22,F02S23,F02S24,F02S25,F02S26,F02S27,F02S28,F02S29,F02S30,F02S31,F02S32,F02S33,F02S34,F02S35,F02S36,F02S37,F02S38,F02S39,F02S40,F02S41,F02S42,F02S43,F02S44,F02S45,F02S46,F02S47,F02S48,F02S49,F02S50,F02S51,F02S52,F02S53,F02S54,F02S55,F03S01,F03S02,F03S03,F03S04,F03S05,F03S06,F03S07,F03S08,F03S09,F03S10,F03S11,F03S12,F03S13,F03S14,F03S15,F03S16,F03S17,F03S18,F03S19,F03S20,F03S21,F03S22,F03S23,F03S24,F03S25,F03S26,F03S27,F03S28,F03S29,F03S30,F03S31,F03S32,F03S33,F03S34,F03S35,F03S36,F03S37,F03S38,F03S39,F03S40,F03S41,F03S42,F03S43,F03S44,F03S45,F03S46,F03S47,F03S48,F03S49,F03S50,F03S51,F03S52,F03S53,F03S54,F03S55,F04S01,F04S02,F04S03,F04S04,F04S05,F04S06,F04S07,F04S08,F04S09,F04S10,F04S11,F04S12,F04S13,F04S14,F04S15,F04S16,F04S17,F04S18,F04S19,F04S20,F04S21,F04S22,F04S23,F04S24,F04S25,F04S26,F04S27,F04S28,F04S29,F04S30,F04S31,F04S32,F04S33,F04S34,F04S35,F04S36,F04S37,F04S38,F04S39,F04S40,F04S41,F04S42,F04S43,F04S44,F04S45,F04S46,F04S47,F04S48,F04S49,F04S50,F04S51,F04S52,F04S53,F04S54,F04S55,F05S01,F05S02,F05S03,F05S04,F05S05,F05S06,F05S07,F05S08,F05S09,F05S10,F05S11,F05S12,F05S13,F05S14,F05S15,F05S16,F05S17,F05S18,F05S19,F05S20,F05S21,F05S22,F05S23,F05S24,F05S25,F05S26,F05S27,F05S28,F05S29,F05S30,F05S31,F05S32,F05S33,F05S34,F05S35,F05S36,F05S37,F05S38,F05S39,F05S40,F05S41,F05S42,F05S43,F05S44,F05S45,F05S46,F05S47,F05S48,F05S49,F05S50,F05S51,F05S52,F05S53,F05S54,F05S55
P01,2.4124101873551074,2.627967152395869,3.138539664902502,2.4665356992020726,2.2050816520019696,2.7785115271500627,3.0754817747783694,3.3196604505619205,3.154444387070527,2.7511149307781597,3.5758782263883715,2.4692557041667387,3.155341443537127,2.6118060562179806,2.654129516787313,3.4437161091993547,2.2356685121146835,2.7512376626162274,2.800737294386723,2.872019481263124,2.5642727051118923,2.864036585228365,2.3951277933553268,2.5878761391854788,2.7887615392873433,3.9135241966279213,2.6183083827060227,2.599168952791901,2.8478796195097806,2.193884909399234,2.7397935725909015,3.1085757728533157,2.4228803338247427,2.3248163005950317,2.7040560540371805,2.179645939393688,2.7688296279958022,2.6439956204935027,2.4054547766549494,3.0889034761122143,2.11382139017284,2.819897341897037,2.4130988622103944,2.620370780997897,2.841925275213292,3.0275101345711084,2.737710102182136,2.663305214055739,3.481057140794043,2.8431340483577743,2.1919049272001,2.6885426555997904,2.3343834803913657,2.602719657786306,3.4063137257571463,0.1567742244622892,0.0363805728002263,0.15800202411031772,0.4884899931291723,0.39791706470344174,-0.15150267048086655,0.009399507416593447,-0.8583510307981734,-0.7339733526605379,-0.9772915928550456,0.1335924770887448,-0.9475457696587997,0.834094678806686,-0.5381752085613898,1.037406269843628,0.3278341351115627,-0.5075980667165838,-0.8643526718170336,-0.21169044002549128,-0.4129351701816828,0.7372813269947244,-0.47773114871801825,-0.19019940260138965,-0.012443753506605692,-0.6008336672982025,-0.2943152898923449,0.6892155256321881,0.4282005354418002,-1.5024667549214,0.3752259480749402,-1.4471864925345292,-1.4353578619926253,-1.3087725478669512,-0.7825863769762763,-0.9798064589377804,0.5411328694027605,1.0069594004049645,3.1555141447828543,-0.5297055606972165,0.33771272189604007,0.7643127217247383,-0.6254433626223678,-1.5442210667770757,-0.36860674368347984,-0.24364983761533432,-0.617201128396988,-0.8335116799042576,-1.0454170407287113,2.167184352399405,-0.21939290380920193,0.08316434498745556,-0.9121400402653138,-1.264544828657882,0.888551846102994,1.4588937836236484,0.8577508946929033,2.251275642825454,2.263854425522824,1.5823813782346374,2.8701302767565546,1.7563829079781075,1.2224598019286943,2.223310042308294,1.9973477805500155,1.508489295164544,2.6632825013070285,3.389144258565561,2.586103149535283,1.9334662495577999,3.4028742916596513,4.0538694472971315,2.313177013632251,2.837643006324056,3.4673318436082172,2.3566546331845566,2.281275588262231,1.1148836333465988,3.380138909164637,2.4655301222018156,3.658966377972035,2.5358460682033477,3.6811183335607107,3.536897053190407,1.0905313230867568,3.1333304019604005,2.9641949371115635,2.218254161834636,3.8393485470125324,3.299363806434594,3.217165068876212,3.3032303019420253,2.9719547755564912,3.191169362068322,3.243172171691237,4.090093973027716,3.578508040601311,3.6854729834774536,3.5730723810850633,3.8662800601618765,2.5656243674404067,4.788394697670855,3.8050819208319417,-0.10253494278319362,3.5752301566824216,4.003324447759634,5.3665051132925,2.985243983203048,3.24969436887842,3.6819184171759627,4.3685031252791795,-0.33150324390680846,0.536553993731591,-0.5274810753922998,-1.2269777659621788,-0.13674698497192514,-0.6375218576453302,-1.0061614867584336,0.013663155478203251,-0.18882437109513348,-0.3088883651232409,-0.011610969534485056,-0.23529955904120758,-0.41689331411613934,-1.19050655599695,-1.1650313028681722,-0.9972535832026664,-0.6532512004779922,-1.1687948005609108,0.22970769695523438,0.3367083210047811,-0.512988495303159,-0.35982050809890487,-0.6748557968339497,-0.22722578212433583,1.4427328519455367,-0.18373698186917486,0.6130495654438305,1.342723932572014,-0.8515586796252195,-0.3823235665152635,-0.6167042903114146,-0.4907398668068337,-0.8728714507098371,0.026485826068918375,-1.5412901834292967,-1.2589058601129746,-0.6732988587003753,-0.42601504221564024,0.14927135382314846,0.9914050414416338,0.7497426711234584,0.47405832328231173,0.23357591020660803,-0.596838792721191,-1.6094104161263905,-0.16076884035320227,-0.4034177748985988,-0.28920866077872354,-0.7542573770574618,-0.5228892799447177,0.1495230651088902,-0.6232849029676462,-0.6667369421353846,-0.8788880426657885,-0.07616253086801952,-1.0231834819270864,0.09179867478215407,0.4714083797628717,-0.26136524557658025,-0.884761293238429,-0.5565193729981566,-0.6294102637145861,0.6383784593807197,-0.8959195639026956,-0.5073827548214851,0.1539803945158576,-1.6144034912856162,-0.14961416588166104,-1.9636059360461284,-0.662586287391682,0.5945097088831847,-1.6421100518659935,-0.08794482646316971,-2.0233066523779097,-2.522136267507296,-1.7450553817236827,-1.3339504658471784,0.8297402176277123,-0.5664900798547318,-0.3066487256093067,-1.7043860752874498,-1.6907517005873516,0.21239188388289987,-0.05287364324991012,-1.5440182487864917,-1.603248694655601,0.5321547437311529,-0.1568493970775266,-0.3992545660515221,0.36464129203153833,-0.8754890244801139,1.3937804465567094,-1.6424787401423186,-1.2357192772909473,-0.5895015306345712,-0.6997621214983827,-0.8488954998053673,-0.5495287923018016,-0.9498343327702156,-1.581016047767631,-1.521684363950973,-1.405160038853376,-2.0708198559031503,-0.881865264549471,-0.4153968035901774,-0.30087740402353286,-0.25450911495397033,-0.1853879244028669,-0.5959436878928788,0.6355397281753403
P02,2.5341545030709227,2.7972593761711,2.0531999865077895,2.293547547469837,2.1409082771745425,2.769515722738062,2.5175345941631933,3.185445163012684,2.287870288283144,2.569735794770073,2.7098463314270975,1.893143228882079,2.0363497992254884,2.667455711950693,2.3683690389607572,2.4546839750577223,2.131767901181179,2.0414403280721776,2.1076145565967086,3.3319644509254687,2.3383394541035454,2.636264102075113,2.298286609207492,2.416839379617836,3.5118527332519642,2.2594992186611953,2.6620820724020766,2.3637890793140506,1.1389263433852526,1.7827244703000493,2.8115300253752897,2.1215837842484944,1.569554768117129,3.5146088495819074,2.501991410482832,2.8711720702858377,2.419054711999393,2.159549463575602,2.4891802735897004,2.187539201980713,2.09322355963327,2.1606869203928882,1.630794315528187,3.4676724416149227,2.5024109566423287,2.409213559306972,2.18782609159486,2.377298457477817,2.407393614428617,2.837212849161212,2.470502136499145,1.5700865240076176,2.3198888364503483,2.6225235768902366,2.654323147193563,1.2605502431611446,1.732321103610834,1.621647337618171,2.1792396805849177,1.3117643012235307,1.6981171706144071,1.3495944779621951,0.7738769400319921,1.6577374706971215,1.592072362694792,0.687328732624093,2.379733859319119,1.0723418351437761,1.2447682539769067,1.4797137672531098,1.9653597343411346,1.4969358521108318,1.626778223086377,1.9727023969831166,1.6818236041099475,2.8097463737993342,2.0630254344950494,2.357188229731057,1.4741346993107898,2.120584460710723,2.2488561968318255,1.9662356988784149,1.7253773881798855,1.818127197537633,1.6743985238938321,1.7084387160269106,1.6580155219564037,1.3773156547509458,1.126940500596844,1.2245925625024703,2.303558282481429,1.5615792392837593,0.488704388793701,2.1229920482836553,2.903724637306426,1.4034627650830056,2.2960492672837476,1.2684376699182138,1.7366289717484613,1.7752665906180312,1.7370083589310439,1.2853357098137375,2.3992228865679857,1.88566137721347,1.216845332447658,1.5246109019564422,1.725776078484504,1.6932330694871096,2.0342999367284227,1.6738893951995675,0.32362843671202995,0.6027621028242083,-0.38366068772907813,0.474290789947585,0.11343999764892823,0.5608759992490463,0.7534916423346221,0.08002421196827286,-0.06617182070063496,0.11994870709950381,1.3787022539714948,0.4914939228711785,-0.2380785814664061,-0.29792385744900995,0.5662374309926148,0.1355194869132072,1.6198910843320762,1.2345192718079325,0.9038850591980033,1.0146523312078408,0.9722475940000619,0.4228325167092043,0.5147353889094345,1.0287603973802277,0.7279376681086654,1.0485372044909889,0.7234603438748214,1.1119334302763768,1.5167404043382446,1.4787554428616658,0.251868005600466,0.6240114286352745,0.6424446353231519,-0.2814765999243016,0.38579437834358804,2.4852375346207674,0.6778730329861388,1.9275154581191494,1.0300623867963616,0.31432822369324676,1.373539725238051,1.4879777824015747,1.8263115742426301,1.1903559766660892,0.02793342526539095,1.9340523026362992,1.4444604122816778,1.9437716629445376,1.1927262149696658,0.6289575815033298,2.268419520862068,0.6086106162177964,0.2947043204285366,1.5299750444256308,2.8159732178750048,-0.0902430985990115,0.3893997082604745,-0.4207292013517865,0.048789630210873,-0.1952907033650156,0.37445703649194906,0.13280123807548516,0.6210659462733694,0.5866646723573159,0.233077140243822,0.35466822911780377,0.6102499879668567,0.02228935002056445,-0.020479919178412298,-0.672168043688699,-0.19450751913240835,-0.24179650826885818,0.017953754050557123,-0.11993299989139893,0.6047173406068307,0.17810273343377844,-0.22366795417705962,0.13182774255084767,-0.18033567783384058,0.8432351664561221,-0.5132172505971921,-0.5606934954518248,0.1477888352158824,0.3199501605684899,0.4196353292397019,1.245712923838467,-0.08418075040435345,-0.5727170696337699,-0.0696280919143161,-1.117023253061354,0.010141711651758619,-0.3493227367848245,0.7760485399403285,-0.47083059557242823,-0.2057817966157903,0.42963357798778534,1.2579500536332853,0.5754588022612036,-0.9290711937629176,-1.0972585580744945,-0.2619618368787212,-1.02097956491166,-0.046814275647597006,-0.6976496297404079,0.7342624913894985,0.13910079861345145,0.4070980872109533,0.834718537546275,0.5371659487214302,0.4919383168138809,-1.9883847469256397,-1.624488167527466,-1.2269242265026072,-1.747371649701177,-2.1289766972313253,-1.3102774025993609,-1.5498550308751995,-1.72953143154017,-1.878084786688513,-0.8173617962673836,-0.7655019265201166,-2.6904589387053486,-1.5105404624340282,-2.1617191963783804,-1.9968922249815066,-1.7323058552567927,-0.6615162590658012,-0.8937184848029552,-1.0151236590242345,-1.5773146056729876,-1.9233829631910235,-1.6913232680233672,-1.4152578767247765,-1.5104635266861577,-2.0375598977258877,-0.37288689251097423,-1.8637915782482986,-1.96095585450104,-2.0375005228382106,-1.630655500294394,-1.2715700478584264,-1.309354435172869,-0.7791351306032634,-1.380094622486578,-1.0330158747775255,-2.159932388398215,-2.646770953659608,-0.8684107177792669,-1.433077856152507,-1.2146587400487787,-2.184622643354049,-2.0173133600265314,-1.70269383389617,-2.0239907775250314,-0.5670649818892421,-1.0521789009123113,-1.5174758975584903,-2.3757252085038667,-0.7897590289992684,-2.247260214857785,-0.13293951210655666,-2.1744368449216678,-3.0219538903709124,-1.5725541185408873,-2.3740697076577346
P03,6.470801302963529,6.351865801473434,6.523914772731228,6.151892451500335,6.546670570283354,6.391865209470744,6.206135838013111,6.3993283152224345,5.431464757648998,7.2364812324837695,6.398234736258561,6.39996292431168,5.00033303129878,6.366834209210866,6.2887423835339185,6.747981570944474,6.7573300881208,6.139138922914592,5.331476946608589,6.411078605266157,6.320389691764173,5.349327574319341,6.166519058779196,6.432690414742698,6.437741651963214,6.317008629514879,6.176474618485318,6.454573588738054,6.23631039691861,6.01354269159477,5.150446432423738,6.362043580451376,6.383426080052134,6.4014691839496285,6.300373344877635,6.379051810655998,6.5748611265212356,5.237774050595149,6.270030010318136,6.402939631000672,5.208243212616931,6.431104599004089,6.309597964364045,5.230190604182366,5.982887536373311,6.54411335544086,6.236173035072708,6.46818835243166,6.215620891076675,6.031272453115491,5.9351785887980855,6.345517864414836,6.624840307172667,10.222951380196923,0.4578540546839747,-2.1249351740582756,-2.1191535509594988,-1.6814930522155875,-2.1097908268429335,-2.040618909705486,-3.130012497022031,-1.4084400166252171,-1.5826974951843993,-0.6995598122509398,-2.2306066316422104,-2.21614116745883,-2.1267401424742025,-1.9253608578135093,-2.189553911229118,-1.8590586777165978,-2.0221003205530077,-2.892787252202793,-1.9346496476841715,-2.588597693968502,-2.821799371403227,-1.2076870714980186,-3.32438450141538,-1.7568717455866714,-1.8573094386895963,-0.6335939763478838,-2.6831583468032467,-1.6985448830622847,-2.597184477387315,-1.3537269566841215,-2.9296868616439244,-1.2686028956966668,-1.5781062371803387,-2.559159664581511,-1.8234767935722218,-1.6987393742367305,-2.056760991588161,-0.9320240349387366,-2.206774844024962,-2.3727951862403787,-1.9331993821967735,-2.2153635085902135,-2.0515224803462146,-1.884577082969497,-1.3199872646513886,-2.166699443762591,-2.415750508414038,-1.8237653802496718,-1.2826479247379143,-1.9700478808651762,-2.6630832926268475,-1.896061070145095,-2.0102968758813233,-2.128018611025992,-1.9627242247181724,-1.8668200039018992,2.849365332865178,3.5520938218614244,2.6881739971542133,2.606450518368554,2.584860564094411,3.291108329320242,2.5471487526176193,2.899451414419439,2.5773119766074295,2.837428888003852,2.0182569474105,2.0459531184516035,3.009562546396062,3.145034395663224,3.079083431122436,2.356295964957626,3.407627688878527,3.132316356367743,3.5357514582274185,2.5678639917346655,2.698335428451811,2.7739304290237987,3.024018718278873,3.035945458739948,2.973515427759729,3.0453582434575206,1.7817902403060923,2.493588578132404,3.6670595073886996,2.88359862250741,1.7477767897684953,3.5777591086879026,3.1082739233087495,2.727382541086067,3.9776510134161027,2.905612679187132,3.9120666829728235,3.2066535036305623,4.279661039077356,1.7905599377589925,2.339971124741921,3.558119108127509,3.0111805608306885,3.1283774498700216,3.7681801370360506,3.3383004459978647,2.6620737579332467,2.9094078388334212,2.636988277997651,2.0498062395473764,1.8575357155799563,2.4245132411535883,2.638995560565986,1.7024941293543214,3.692063412627053,-2.8870708271308576,-1.9319171532672135,0.058635091175235014,-1.94481717413505,-2.4865504315751576,-3.0592847876874485,-1.6969679877495842,-2.7950074044371447,0.6315966737204592,-1.6154387755594,-1.4475243502172634,-1.6724963663875363,-2.3353210203467425,-1.793790193234704,-1.504424563995024,-1.9103947702077047,-0.9736844136848187,-2.6523353343490843,-1.624442883150577,-2.482263465066289,-2.804580374614003,-1.5854607453940803,-1.4337969399623192,-1.8030276096968518,-2.061477293123013,-1.5125317071170725,-2.15869345283747,-0.8637561793636409,-1.5667569134257258,0.5927213068219478,0.775307891818861,0.16124400175562673,0.8290864496757494,0.26355441174396976,0.9614102978727574,-1.8736229449801498,-0.6260508924812749,-1.513512821889254,-1.1851588530742725,-1.250524370120386,-0.633693973093514,-0.8229866440405003,-0.7706067077188624,-1.065449742432123,-1.2374096255470715,-1.2043333437837878,-0.20531340353701286,-0.8724566543190551,-1.0963004860617764,-0.5762566161267685,-0.5825956968986159,-0.5735158014509951,-0.6515906234224734,-0.9448599711884507,-1.0725694299084436,2.980404299359929,3.487914943998953,3.054404858403162,3.4084138074041124,1.938048808369861,2.8865725729357656,2.6030170334071983,2.4537260284146405,2.78500064014924,3.13322684735466,3.874406815156298,2.3083135519733387,3.5977958524274456,2.4137332418096857,5.0600660962393,2.198243711954646,3.387480991098698,2.987755593708744,2.6734149614739096,3.125490843946617,3.4118565823426716,3.134611606775094,3.0843381943297024,3.158007629582662,2.2316934238217745,3.8561991600055645,3.295619416209276,3.8246818134809057,3.7277764727447167,3.3777844240448753,3.9563408862292664,2.580667511036028,2.74491784198944,2.8475077122954273,3.404411722209981,3.118638280101837,3.182282148872048,2.8741948631451746,2.923279620500838,2.8441118442827404,2.460366109953476,2.8470971634263167,3.347300113112166,3.2042841427197692,2.920805461776052,2.130845820606817,3.072548319738035,2.3845839215466906,2.463775313489777,3.1344603126464468,1.9961447517942057,2.9912498715477747,4.168353778995819,2.6866602752358326,2.2340817526825907
P04,-1.1199359757119263,-1.3769623153794204,-0.8875335734568628,-1.15829311897811,-0.9869371711553794,-0.5714783870456621,-2.717905634453986,-0.8876821469599316,-1.3709202938446867,-1.1038865772642816,-1.878150633952745,-1.2806693167214889,-0.9906495716078089,-1.2731604601627882,-1.1766842693577075,-1.41902116216193,-1.1234908805099673,-1.0803326405567648,-1.6347003872237462,-0.8808317548755221,-0.810318443145506,-1.3442282302424642,-1.629839460540394,-1.1352525687602988,-0.8505829741807079,-1.0370431753858196,-0.3238942652769992,-1.136064463722196,-1.5451153743605825,-0.6672727343430367,-0.568683880561533,-1.047967898637274,-1.107039671318649,-0.8596013492055873,-0.9139275200693932,-1.865083269564932,-1.2823397925827802,-1.2416423776167334,-1.6610732311584337,-1.6400959603549923,-1.2859801612388189,-0.981166253563523,-1.392759654302015,-0.7513280317836809,-0.3359647723533485,-1.3251180936093327,-1.4233915777876944,-1.4281527529384237,-2.1114868655446326,-0.7768551348275327,-1.6288278610675904,-0.9356452723688723,-1.0708234347400536,-1.8649877632546306,0.949580110967564,1.353077433407951,1.5374844758551875,2.032032514042826,1.3787183100158622,2.1592409265034855,0.8913757733138861,0.7362361654571228,1.0451979121226407,0.9737259868468472,0.9958688673830249,2.0322143426391346,1.6825533920322175,0.8906048424662173,1.2681558695550827,1.8291123686252535,0.9026286534487561,1.2201079515524071,1.2494856088022284,1.719142977777315,1.16757620697679,1.7005829069520406,2.21983728453702,1.134826254724847,1.5649641781392,1.3518178835574877,0.8513619625743403,0.9400567040829595,1.2512083045177402,1.7041370340776583,1.1103797351763722,1.6938310400694099,1.7738441947843484,1.0927678189773298,1.3444335387067867,1.1410940564011114,1.4726142943763267,1.0346642668797255,1.283584768265772,1.6325180708760334,1.4236876376022773,1.1517542251161967,1.4653137113562515,1.0072616159281975,1.0105941075082603,1.6715203741707667,1.0094820291049977,1.9539461425449685,1.4283620071773837,1.4693195028266488,0.9824844077897501,1.0897115488216158,1.2317284622735152,1.7720752359943925,2.1721820713179842,1.038447894725112,5.730576452944089,5.606914112678375,6.2797638958726925,7.326541700352629,6.503152897325435,6.400583841978094,5.912630506178923,7.5795038612038566,5.450269895483596,6.645699650136858,6.438915385358962,6.391594801264173,5.914361024089959,5.106405885169842,4.84281577571959,5.407937836415773,5.1475111673743825,5.759565405551491,6.541725249248233,5.180212971592409,7.293939002826251,5.852955873065096,5.928010450003821,5.914278383880725,5.265848783593932,5.104236889359123,4.935375429561861,5.3760327321829795,6.237688930988546,5.801144231707301,5.831440760129313,4.762494774198598,6.540865615735761,5.685288723857491,6.143211974702188,5.739335926409454,6.456089054778823,6.224044695932452,5.059187885325758,5.401787843181742,6.43030541081387,6.453247656156357,5.553917584657461,4.791389043036414,5.598515966191984,6.143905853662456,5.113189490690669,5.609060370240109,5.884657816007593,6.029177534069355,5.176773691626496,4.941579985714742,4.7905467152222325,5.50589876647236,5.857007442771522,2.221698565004244,0.8981744641529721,1.456696836729206,2.7839061027380043,1.5337707552072537,0.7027707345152437,1.5245409748568841,1.0495173991692988,0.9752771293830331,1.2896314329953475,1.2726488173032848,1.9329389755013318,0.9533794012755101,2.431619817909359,2.7972170729797963,1.3417552846473506,2.054999512372914,2.161361799637594,0.9866372527934939,1.7962132340711208,1.2736460976191624,1.0345033917962627,1.4720752826844907,2.5649227926623217,2.434346441575035,1.9770618849648813,0.18284491088179433,3.85917022019779,-1.738131507100559,-0.14401264236172573,0.23347142622203004,0.023475901965930197,-0.1255162934901996,-0.19258010770569065,0.04492134806119265,-0.2059205384134631,-0.17110242340276227,3.930770966155045,3.4169683875029704,2.4943143041911187,2.757980238443901,2.3296975873901626,1.9004791555268383,1.2943980517925204,1.4345182164783175,1.3947655296916481,0.6797856771855052,1.634865910890506,1.1615085963826601,0.7184161170148435,0.9371199415774162,0.9214226489323538,0.6225181285662736,1.37293335695492,-0.03171438264740215,-2.3975177338901066,-1.7102037660213234,-2.239344289041875,-1.3554713196490777,-1.9458278898451613,-2.2575128428083406,-3.5322189068340863,-1.6513494145277814,-1.4401192178973168,-1.3908737688307882,-2.3938594681575003,-1.9246039358428462,-1.3241244352006345,-1.3711950317544346,-1.1755809603000111,-2.6166820087829508,-1.9890535337572623,-1.7802127626310311,-1.039367695559617,-0.9823147042760559,-2.5282774965300727,-2.752118327654455,-1.1861006055402166,-2.838936258618909,-3.2540326488771103,-3.1073834299559504,-1.2210505565711185,-2.817034655736963,-3.1909857602955722,-2.556414008614615,-3.0181970298304446,-2.8455828477785094,-1.646409052167761,-3.1427504326831084,-4.265843092295852,-2.944940522870487,-1.9815039212232226,-4.022525953208874,-3.4977140458719793,-3.1292012043391857,-3.1379915166092265,-2.3945544674682706,-2.5345547136275313,-3.8223673705910155,-2.8406345548143275,-3.6296896583010807,-3.065294006938288,-3.086847062881208,-3.494994068722269,-2.5410678742335424,-3.199978906713198,-1.514509025542513,-3.7593155598906653,-2.071372073600081,0.5948087406159778
P05,-2.134184542793968,-2.2463810630067775,-0.7044148856608288,-1.5637861965737725,-2.0255576666047386,-2.8994294610222107,-2.24104300398968,-2.978544690526941,-2.616996777011848,-2.722541095884594,-2.7322219840638264,-3.1526044211173287,-2.5875426126262804,-2.7879034906521025,-2.609178140718904,-3.5268107026954922,-2.530659488414891,-2.522096847298539,-2.638899903238007,-2.457206740305676,-2.983294892022103,-3.131982713788239,-2.6720983264498743,-3.2746108709273387,-3.144637732055829,-2.0663928395679356,-2.8427801398482155,-2.5197036912283353,-3.284746106994669,-3.2281012893860384,-2.2766511553514275,-2.3369410966462447,-2.568392405334683,-3.1418904685613396,-2.555191376458398,-3.2041830647207155,-2.7746947033830174,-3.094553926737625,-2.4418263243207807,-2.8537919305479265,-2.9328326776118594,-3.472468309172239,-3.131745993886886,-3.0865144830632474,-2.8952903004015274,-2.300631137920263,-3.3303368129729294,-2.163227933567973,-2.213212728360386,-2.720493675688479,-2.665313077772691,-2.2877598106197605,-2.4820394113340174,-2.346089040541458,-2.053477368254363,1.152489853793344,0.2616790977162571,-0.45104756088478404,-0.271373500630852,0.9639144068892432,1.1763324663582948,0.6491188187524812,-1.126061218620023,0.7677358820222077,1.908470585702423,0.4224603494799354,1.3199501851059978,0.5334768414956342,0.944702981127417,-0.24964687445778053,0.8945524002343943,1.1984826853306312,0.2965325611033822,0.6628373253135129,0.7513377188287723,0.7399640430341312,0.920844488732557,0.8495880560254891,0.31240677100427705,-0.8116490831850149,0.9616779156686956,0.765745167193452,1.4905973558961885,0.7516767196724395,0.6837484620860276,1.2208940297841862,0.26214322051425504,0.1853036029720187,0.1516369674000385,0.8955210250791054,0.4880458887737704,1.0408769202561072,1.0909613433961889,1.0910483656577514,1.5861051763492227,0.45452351689593523,0.13080236688014318,-0.20067679218643752,0.20253342551331757,-0.020997060124380823,0.4382691116626282,-0.44596412095820365,0.4590946769376127,-0.6509419187278006,-0.018964289189719825,0.7797782114683224,0.3048188832478587,0.7713054885961851,1.0287303455352093,1.505694077510377,-1.6920106703273747,-0.3116505126025502,0.10968601787977574,0.6631237873071919,0.6763211181630112,-0.08891563836659802,0.8476955821088517,0.12808759288674296,0.36166001983661344,3.756028420042568,1.3405601503061069,1.0967631006833374,1.62674774392116,2.7538739886962897,1.2526440820791915,2.6605364546528096,1.2772021412142922,1.0394990997656532,4.1588902792984594,0.09419089061722236,1.5380925561434546,3.3338860164785142,1.26286997594438,0.8763063882897981,2.6243616264116456,0.867604180877159,0.8468336117224936,0.42055598147184964,3.3364381275149153,3.085144817291413,3.946241349298023,3.140676940781816,2.104146064116649,0.5163729490658245,0.48254548950711396,1.7777117942540297,0.673120961474203,4.73300781316054,3.2947438589757647,3.4143397275079965,0.3115645877503303,2.299804481883707,0.30089985609406794,2.226057997442021,1.5493476446828562,5.17566265826068,1.8896162764083508,0.8172400872812219,2.936784754001339,2.076585049525662,0.5094421389391972,2.143197410273262,1.7465663497150277,1.3506545767692142,4.193327829002883,-0.8587240777967374,0.6942860596702963,-0.18005726508964331,-0.5433483643287816,0.6741395976112488,0.36704665901668826,-0.24070127613022407,0.2280635672163023,-0.0489068866208637,-0.05959747466772483,-0.07524362290210676,1.3081984154148179,-0.48712596545654085,0.6448891135661068,-0.4152225900296088,-0.335060198269826,0.34558117242132597,0.09561385250132108,1.3344050361070467,0.9445915321928882,0.18344746718847704,-0.2814561132511633,-0.1087497615543683,0.7159774025237325,0.13528212739239684,2.0824197671669222,-1.9031399991523419,0.586365016182051,0.10104290192192844,0.8991825695491844,-0.7729691236128271,-0.33607618976638926,0.056004077859564745,0.10052687453509096,-0.05653547821298332,0.25027180348329564,0.4816469229058795,0.17898420454105754,1.3398717952500565,-0.5349591946723102,1.1229204196548137,1.0025469697349587,0.034812868734743777,-0.06812002572169501,1.0562677736469863,0.3127413617348996,0.9960591666464376,-0.01676189181198519,0.574665582455544,1.848914293607515,0.6307202889957026,0.803966332639923,1.182086755207505,0.26330497527036756,-1.0247182201523233,4.133332126232191,3.923051175687818,3.3229681771704773,3.694351429168742,3.41354191584687,3.9412864349083265,4.512442427598014,3.342799740890158,3.8207527272312527,3.0483618676581155,3.167227928378533,3.0560544614357203,3.492640211558293,3.538947336595158,3.8607055012787312,3.2610158606038127,3.5796099822418497,3.3196940235904657,0.884546270908011,3.304583214478615,3.708847093073983,1.9417233052915905,2.669868998537556,3.142074287008479,4.06323074351321,3.5466370508818423,2.9710141767506038,3.3050282994123874,4.594803055487711,3.5729478090185958,3.5357032504704184,2.8951201321889486,3.193730469899555,2.4299079655267772,3.177963579545132,3.1700912643985792,3.377832480316619,3.0330355953086228,1.4299579605945612,2.8916455856986727,3.2168897901599585,2.7342396702585336,2.915764748553461,2.2759441711131903,3.3146574745806747,3.1578866545681654,3.0635804739196852,3.2592251730136512,3.5056305780094505,3.307892542761194,3.7915073282788154,2.884685325529702,3.513304519812809,3.1955273792625416,2.268222419966847
P06,1.2579987782616209,1.7001205712144092,2.010120369463807,3.536287622407035,3.1482362233183885,2.9739354291314406,1.9258797957040792,2.557289017520975,2.361776050046565,1.2489845141427858,1.7539230476175076,2.177759968313162,2.903054664542453,2.5775791045723198,2.453868559019797,2.091780325620281,3.6128979262779874,1.378430045164512,1.8519416848914534,1.761573375715137,1.1371535126728187,1.9186112458579707,2.96289224558006,-0.20094038496554129,-0.072793454210481,-0.2074854346494914,1.9530572425269865,2.745894305699257,1.9968897059435422,3.1784671612038013,2.241467481246729,2.482854858953081,2.391886281033089,1.3987856573382165,1.1217403236037629,2.6084811357019437,2.291853522272166,2.008318062359102,2.662114049301488,2.6835302447895706,2.254453987283711,2.26946907446367,3.8386185124305037,2.9743990577087818,2.5629423487166765,3.364806537565213,2.2779816739260537,3.2825280502981005,1.9399423730337775,1.7074643559981426,2.3473282810664093,2.1572624994597844,4.3435303511183765,2.57431890900943,2.6384460464182586,3.3882656869737886,3.0004178387650695,3.4867983901432598,4.000222023409118,3.1240404537692616,0.15958834870298336,3.815782239288728,2.7494337339929813,3.1396013994073493,3.813924156901248,3.5850891955904087,1.6311712552323765,3.056045877180434,4.362380206862477,2.95162573311805,4.905850581324322,3.2324431170486227,3.44016431295828,3.4105961278876045,3.3781060584032785,3.227685017738668,3.728117127477207,3.4084635166015715,3.4191096770400424,3.1419230555007815,3.1014717711035,4.5601807198937525,3.5829026790961667,3.818120598804393,3.3548415761981016,4.225286788759599,2.229918819020145,3.9468445828056375,4.281102987395181,2.670398355506673,4.412609299222514,3.155115513737067,3.80997076795031,3.8354928162434794,2.249494345933039,3.3913606394446765,3.7084610556857345,2.287678849703093,2.9501304349973743,1.225503262884585,4.165255079730687,3.950048138921171,2.7306308172900198,2.486879983955053,3.2830367620519687,3.2357793852276133,3.941158917719259,3.7410234944222793,2.7578542771908645,3.7122779763079436,0.5166237461512867,0.589117699917783,0.8306122755916427,0.5354572528075283,0.4500002487032087,0.390461010475659,0.798937073592029,0.43811718245910136,0.4250467841925625,2.5746580631648626,0.8073337725458555,0.6108430122523831,0.3072553363519438,0.931228377660965,1.634271831226886,0.035624171565707644,0.6824878051847642,0.5774416495645275,0.9392416456726922,1.0621344700508701,0.5648678998432662,1.9293666042640942,0.9840091629673249,0.560069660195814,0.5870182479839806,0.44095584293092543,0.8044430776368028,0.5996064702423491,2.4360935181930836,0.6377515239815256,0.7587935387572079,0.5859206956521632,0.022590381885969207,1.1532583598069912,0.4881673500665463,0.959910453911481,1.1664647441135805,0.23307274176683254,0.46733323931230536,0.528165653033926,1.0750777360521624,0.6849370110591266,0.27910743846407976,1.6317699219415236,0.9598830152495033,0.09479136471937949,0.3876141149297574,1.1029764617422977,0.4939277486780503,0.028449844541872014,0.9443919602994659,0.7304699598745458,1.058173165099475,-0.020624136495277917,0.7918829192630558,-0.712036984596091,-0.3928702866266301,0.06210709556287723,0.09954929577524281,-0.9897630183044501,0.09039395487325459,-0.1551435010672368,0.006156525867491399,0.7694582425474747,-0.5816906015485926,-0.6281643406030936,0.01052576694729586,-0.6294754095585139,-1.0063585611392443,-0.3642289231266072,-0.07614177298819548,-0.13731150404040127,-0.15561438807744873,-0.002809703517997757,-1.1149445154365565,0.32302801206621584,-1.0246420398695335,0.10562456775772024,-0.06228864254541206,0.48994163997338425,-0.1550984947296306,0.25198642236158203,-0.39569443469653254,-0.3032481835395675,-0.3717856769063877,0.5209005672037004,0.047973609666426144,0.1730461047294146,-0.7401773897741357,-0.5739068156285431,0.05302617524934558,0.1074749114458359,0.12525042095873215,0.2422453127390033,-0.04792242110992326,-0.6153183233905763,-0.3441415395979337,-0.39929445484876713,0.0971409190291087,-0.2152689707920121,0.12703884717048286,0.46537687819096085,0.28678386977040654,-0.3588590939080198,-0.06801294987282624,-1.470080617968664,-0.9369712349531079,-0.710339035849427,-1.062487634915532,-0.3523034611692249,0.5122284984060662,0.11195899994874628,0.1882416103361023,0.6774223162616662,0.4488289135424061,-0.010979224065249586,0.4812126178933735,0.10064167867437503,0.2723818177136895,-0.5834406419505503,-0.0694028184617062,0.372796546837215,1.2403505498056684,0.9947538346517801,0.4333227081038891,0.1388454146679556,0.333726903771889,0.2399671403944561,0.07875464136072498,0.13572740035955486,-0.9268403065649481,0.6672719761089081,-0.40363323512448973,0.6715412733492828,-1.4717182083193034,-0.3323788185222991,-0.8170642039301692,-0.12303281900570565,1.2929802289351473,-0.4458760393378373,-0.07361282130694169,-0.036363643302725054,-0.14427850079845103,0.551636881428103,0.6197110219217414,0.2864605475239643,-0.13645516611172456,0.08192582572755062,0.06872127167968588,0.20767695553992624,-0.228824468822474,-0.4325449546770151,-0.4100635228636596,-0.13308694740136254,-0.07279754491742672,-0.11951689871703924,-0.15960180628554435,0.3535719654919817,0.8133483550321273,0.2790210438577807,0.20691154832294006,0.8185122238989055,0.20271513669456034,-0.1370532814381129,-0.04449613344939349
P07,0.3990013372653212,1.202565924419602,0.30014617556955087,0.7793130699407248,0.32846440293388973,0.7174151941667429,0.8538860875693944,0.6476585018449195,0.8120923383220423,0.7435144309014864,0.7277265752017221,0.9881272624969092,0.8742477991313005,1.6479178831630081,2.1150442168326586,1.0404345793236356,2.1926072497870606,0.8405363240601108,1.234764157608524,2.396666519500253,1.7320080004158953,1.0175225904818557,1.2628449936097101,0.8066664539816464,1.18562838701011,0.5562186847686404,0.8772270477932167,1.0867851667732389,1.1048584051369101,0.6345913393329058,1.48782194666086,0.4084406047714305,1.024295475209127,0.4038780291048803,0.9665062146302174,0.9042972626792304,0.4045993916850008,0.6565786128334622,0.6096790874106427,0.618038223856975,0.6959911746945787,0.7605525543792686,0.23673473322333738,1.5568433467285796,1.547310351848518,2.159912081518988,1.520431591279963,2.11278125870026,1.882424760627301,2.397877090204741,2.08818689705609,2.113511453471694,1.8651520560094303,1.7641421060129046,1.23303287601382,0.5411586439403977,0.41420122176892826,0.23953376204939233,0.2673353338296983,1.0011285123565952,-0.18752137598180374,0.8606242252511322,0.25917181191479755,-0.9089378307390343,2.0353711897634796,3.9220870810115933,-0.5849333276013935,-0.19341760510528716,0.2915771080860513,-0.04596159137525427,0.07025479198791001,0.7936971211925911,0.855980520594552,2.9970242954753474,1.3755252629826542,0.9774032629061455,1.8226589177091053,0.46734485388104724,1.240269088919243,1.3410574354517766,1.3039149556831788,1.3597041034885216,1.3193114350275699,1.952148224017425,1.2377598484683996,1.0390158104067557,1.0249654291526913,3.533237307563249,1.6117071123746374,0.15955920043002358,0.23175188996976595,2.368785138969017,2.792691407197179,1.5935929366603243,2.3731178510423296,0.6825132153157107,0.4943404034585853,2.380077049929036,0.18951052244331476,-0.31267040563832516,0.24540950094436972,4.084238904397992,0.6335783485805412,1.602684637215487,1.184149998637704,0.48363274392970096,-0.025259367848756847,0.7484908411370419,1.9213587917243975,1.4337869823525524,2.9139086966209207,2.197588638993875,2.669009272068596,2.128209545066385,2.1444781321038024,2.508605271418052,3.6895634771073915,1.1801603131725324,1.5308799573860976,2.9983965305522835,1.8813482864313513,1.7856352334587275,2.675037575654074,3.759060126271284,3.9204305426459465,2.89214686458074,3.3502238867902676,3.7655349434426184,2.8583552302296154,2.2259565685553704,2.439669531715583,3.851427620689251,2.8922878778156633,3.6239637235966367,4.34834124190416,3.9892409480813247,4.314694803853093,3.8094018962965377,4.36812323554387,5.152034463489983,4.36067040870753,3.335462521083893,2.866947479065751,3.0304516140651243,3.5795120558317124,5.511759271192892,4.963861821003743,2.191855710932628,2.955175557621622,4.068672907319129,3.730389757440767,3.979518563456055,3.085582653312947,3.0150627003829418,3.4388678373531434,3.2890648987383533,3.1134165007065913,6.339986775967985,4.180346906326638,3.1952115536318586,2.983465566360676,4.3740729508302625,2.835144128079021,3.135460345779877,3.190843152424726,1.2052721399628068,1.2979781217674118,0.060235851627500024,0.3962098274003933,0.7916416538852653,1.4690307725791099,0.46965450966759614,0.4498736668833262,2.471452108564613,1.699095717243012,2.0520488968149304,0.730887081419927,1.0142550497364409,1.3928445294195313,0.4333997887926351,0.4412378658093995,1.4306675185431992,1.7135793070104146,-0.03296090089699511,-0.09145150261994572,0.1743129274111904,1.2898353012316868,2.3405037511727196,1.0106192680887374,1.475601954411678,1.428863411316793,1.4392480682270359,0.8438715961180497,1.6018592651942172,1.9733007233011863,1.2625513859078143,0.5806578306239196,1.0414601763762685,1.8902604543548591,2.022158334004141,0.8747793878512932,2.145482744316284,2.5089175421443213,2.5203885849175984,-0.020550070797360487,1.4250513918073155,2.249289054528301,0.9566789384994149,0.5679293841154058,1.0005412553639648,1.193895002920092,0.5472521070069594,0.34381650194234686,0.5905830125644452,2.6497935001626587,1.0350663591077207,1.462644182704076,1.6801628230490908,0.9481923681908898,0.37133500932653346,1.9680798387856453,0.9440953577971939,1.8927690876713232,1.759663409750718,2.712731448830657,1.0988432384621802,1.6184869441017649,1.3573477381893606,2.309057057219031,1.31341134647739,1.3824814419800329,1.4860422513813674,1.322158198205806,1.883642970995765,1.4132251063169214,1.4518180434013792,1.6086630235932844,0.838303156560453,1.5071519832390958,1.3462675185627069,1.5284234032193644,1.663625898176605,1.0485511652501223,0.9704233783306377,0.8903341219819475,1.4958154878979653,2.5872231965825114,1.1116072559597003,1.1226236345169371,1.6843767478110205,1.5473277190871166,1.930952035537142,1.7245477606208681,1.6045753363546678,1.441042131045685,1.6972996090317358,2.1652288599149423,2.2286107931029835,1.7807186527258376,1.9073886674272087,2.369578401456522,1.7145652652071575,1.9481131283240423,3.9800965650756406,2.1316026713673395,2.376862701159437,1.8982727986617516,3.35880547118415,1.3651917875872188,1.365201141013,2.2397549409422286,1.5775932811773528,1.814882267580581,1.5470184889025553,1.4402023946587375
P08,2.0732237291390554,3.578973760843454,3.4302136510477212,2.507698297541004,2.3339680809036505,3.0453675010905026,3.3042572720966756,2.6931112460592144,2.5076021529446897,2.4375468364448722,2.5081462112591555,1.2182103458558275,1.734287390717691,2.0110530860873377,0.9478757243512184,1.698486301412722,2.610669556263528,2.612591943819474,1.8693400442662225,2.7092425969764355,4.717345976536263,2.2842930475672802,2.7831397019492683,2.938021317580595,1.7388879521445377,3.558160621255249,3.9231752606345904,2.1613997378111804,2.0888750968975396,2.4307788902311733,2.2934930043898087,2.1892908108885756,1.8979758611828585,2.7911455182390843,2.8533019666742745,3.549018296728132,2.751476282867091,3.591380111173433,2.4760735713485404,3.951245020481798,4.038298514505531,2.687328963898419,3.0933951433427347,3.420361959253113,3.224523702903989,2.361028688116038,3.8853400691433206,2.789131366303696,3.1055521019009635,0.7213318553566036,4.370006515550821,1.7353239265796323,2.2515977532837566,4.814622079410638,3.613047929320156,2.3330056504847527,2.8290918523822484,1.9852187849338918,0.9704249514459673,1.7391193641061793,1.5837120138670666,1.547145357892759,2.3458494495827282,2.328205812696516,2.045897526111612,0.9037157269716003,1.440468813742558,0.7209358139585773,1.3596630798254161,1.8555928699446849,0.9381681992405219,1.1147138669366532,1.3328885904730483,1.148284931704303,0.5846894232843214,1.0237082982374455,1.9616295495193972,1.1444212456634155,0.9853809037854869,2.0786615673317104,1.5286859057317093,0.6204773772869376,0.9147759079127059,1.1919714943430741,2.1716132355894646,2.1731829123158786,2.047152962665191,2.9606910622115383,1.2861649571109441,1.3987546561728303,1.2631340339424875,2.1652580933941383,1.291996556241755,2.244160748660358,0.7167164764200475,2.2069713078610635,0.6013272702575152,2.7816444514785688,2.1086542975009466,1.4184804951097751,1.3716899860161007,1.6682541789042689,0.9929064249501321,2.3707174339530033,0.7950147451000917,1.99798157263897,1.9149653598956515,0.374586963597375,1.4027597331123534,3.3685399959109357,-1.6037323239559098,-0.2842849326210881,-0.8485000931400614,-0.5168303738699879,-0.689297104528071,-0.9195387804536673,-0.5782551317645798,-0.7082209035933149,-0.4731105951195267,-1.9075414575596976,-0.1778889233788392,-1.407775775862234,-0.15811775387636884,-1.2962653649071207,-0.4888624703485078,-0.9429249571981616,-0.4226573170254551,-0.952003468590277,-0.8076930911175685,-1.4890752076880078,-1.2073300154347455,-1.0619150950834273,-1.8507642182136061,-0.599038626942425,-0.6752517031938264,-0.522631983347895,-1.1687715249490758,-0.6818216578677352,-0.9102121618688727,0.05246005097870236,0.33510806468424653,0.03208549835242286,-0.7937414503462483,-0.20778311779744402,0.27923628555405416,-0.6904539980405202,-0.3623710116833959,-0.9773361916405156,-0.14894281255884387,1.6684269474248181,-1.2273285151191342,0.07551292102265235,-0.2528733981045511,-0.8554114907096506,-1.2240867322591527,-0.5530848269593831,-0.3534936586134525,-0.14533648793897022,-1.3791715263410107,-0.8610247528917966,-0.6763591403480046,-0.5136975012930058,-0.8601369382276961,-1.047307072370571,-0.23393450822916834,1.6212368241271875,1.715820903848572,2.4427045498422517,1.8446026178148924,1.2100623668523367,1.5963345652008842,1.0410602993369538,2.1495303764310103,1.9728164226068015,0.2837698295100761,0.19171124981305757,-0.3447033297029657,1.4440219494771356,0.051884926980674304,1.7546123916013878,-0.706575376074055,1.7548593302801527,1.061362308890736,1.3352568535475502,1.7425765970148193,0.9655346356929039,0.9930426229877821,2.144828614740992,0.4882650853958022,0.9391962648088709,1.7143207728478347,0.8878426967760685,1.0807655834660224,1.2244579469281076,0.8311254162356942,2.0212746179961805,0.7652839045808422,0.8905597981367995,1.2058122682353392,1.1601985652167102,1.2195321620314765,0.5846059616329558,1.2609901221740538,0.6077488643003501,1.2066095717650651,2.0317631697571295,0.7276231555112505,0.09081915667738456,0.7213745112118375,1.2751228618060058,0.9280869063409323,1.024428662083674,1.0566452085680131,0.36699623436149953,0.7741801269286971,-0.010840175432163517,0.5132195413905523,0.2878603969540832,1.0711769541224911,0.5372154416875871,2.070712013097085,2.5688332421710345,-0.805289200755682,1.3031044197412922,-0.5356349467703468,3.545716470410169,0.6036509629742879,1.3152539560401486,3.8018836546785257,0.9005525168463535,1.5836847998872718,2.9552737751108835,2.0433769385896885,-0.44500152498409973,1.3471339400091409,3.156764380258523,-0.4905562019039967,1.9179697606943313,-0.0527171549436122,-0.24792444693414026,0.6037464390955662,0.8457639622205606,1.7365296574491365,2.38082349783632,1.9178783922096379,1.399323238569166,1.5313964319285338,0.7133793680449335,0.8559838099021473,0.736190984527714,2.3995214374465768,0.8893040683786693,0.6709882502726072,0.8129468551836337,1.8731676532128807,1.6697039387118076,0.5609018022995917,-1.1608316899795272,2.1123974055578665,1.6743715948356972,-0.8628646639229841,1.8466246829212594,0.4840357074967277,0.18716133964608936,1.1063628950276354,0.4921025868600248,0.9921181950507113,2.0144854245042962,1.9532513544310302,1.3706940016831382,1.1369988279034506,1.802920910198852,1.9092341432700783,1.20391723303146,1.5798447113661869
P09,-3.5348670132504796,-4.67855954087011,-2.4425980442934314,-2.264046257378082,-3.14099524931559,-1.9412314583243528,-1.4955218745656678,-2.3245548234131332,-1.1714263558355105,-1.641467692842645,-2.1962522681253875,-2.0743679636238843,-2.6149717476314893,-2.416501688000654,-1.6954312591487852,-1.3491994762354633,-1.8597872401277666,-1.1385461836982564,-1.3750966170834127,-1.147706945606126,-1.6797005579795572,-1.4324843868597161,0.6790424517012924,1.4060269181912888,-0.8109522125754384,-1.1237911471118869,-1.4365197420966282,-1.3151562929388239,-0.7635584666688611,-0.4776401539335507,-0.7887199668094275,-0.0070353384157038285,-0.840087275158566,-0.857016205669804,-0.34293132986147057,-0.597576752415291,-0.24142404857060054,-1.0046347636381576,-0.9762377255194514,-0.7663544471433363,-0.5326210192299208,-1.0130999784283667,-0.5750779367988175,-1.2119166292572265,-0.31064640985266856,-2.456616677441689,-1.1665677321540373,-0.2680172998048688,-0.8033989757718674,-0.4383682277199539,-0.7606842037174083,-0.24416221156554052,-0.4541622828574343,-0.8674736125688485,-0.4317449240500831,1.2104154056659673,1.6652371402434192,0.9131691293988026,1.8591721346041854,1.1109257176091525,1.5805396578620354,2.7152314480516493,2.240203930823516,1.6516836619417674,1.546090939642766,1.3124547172885523,1.4139185129505614,1.2169181604534256,1.6508601887216705,0.4049782962877959,1.7013558249429979,-2.2851874346325856,0.9240573966323697,0.5824581271733654,4.312345221554746,2.1858780919071097,0.28847468640177826,1.0017649408991254,1.4741507239796154,1.033141429807082,1.4294509466985847,0.7271567971948634,2.3048109491419644,0.22213349819371853,1.1741984118938387,0.9780315713090688,0.29916708293863925,-0.09050346727417741,0.3297797302872825,0.4313162963195201,-0.3478325612955949,-0.3463668731119418,0.5149588540419704,0.3268573483494671,1.3091780892950233,0.48345646570267026,1.035282636654651,-0.6884041548694322,1.253790019382543,0.26952524910032627,-0.12572136793813166,0.30134431145959006,-0.9344159640408228,0.09871574416658152,-1.373151596938533,0.18617134347979405,0.24038010040958335,-0.4412101469634019,0.012078635096639553,-1.5696909504186216,0.7743911052873141,1.34303447913749,1.0959427274961389,0.86712761912215,0.9872052407764655,0.9077265195723188,1.554958378180277,0.7080503477754531,1.4322649110076298,1.2256845518335358,0.7784109845125238,1.0266354757732337,1.109846209832356,1.0008418128288592,0.9242604862351623,1.4704187480023638,0.8105062551005194,1.0934865366695337,0.5196488041716089,1.3606044989064772,1.180705881229893,0.8296034692695865,0.7110829098102383,1.1545245980207093,0.826260782360434,0.5082539702400234,0.03806254746819955,1.7665487935457216,0.7580186092075353,0.9126511474844066,0.844751414098445,0.8051241210238334,0.8955877253087821,0.853646879543517,0.9898645516569904,0.964647727915816,0.8699574330617247,1.3402169989466093,1.0564673387244528,1.194351724897663,0.6705223546532884,1.0786157983710243,0.5581279078802883,1.007206264068876,0.05413189510840012,0.9332031889957095,1.092605498607494,1.4899549281586797,0.3698217945358353,1.0592011388909326,0.8220830772094826,0.9338921206283519,1.079593423852082,0.9836286948517411,0.3972251910029645,1.1502338816082591,1.002188805444506,1.2928883475760742,2.1367096274806485,2.854884013465328,2.670372021590775,2.072308098582857,2.316274384370973,2.0743731040007205,1.98778125090098,0.40000995167510695,0.5897484333074073,0.18411819748176542,0.43270610390890696,0.4238321516319443,1.9167582564185661,1.6673327257629496,1.1245216247904326,1.1469537742011617,1.8025269557748649,1.0876123897601968,1.2529629699171736,1.439702954988483,1.6309088973807107,2.4931976914133105,1.478581761002888,1.0494617736348069,1.6794655536054122,1.4378177483196062,1.3702759039065233,0.4938041021873355,1.895836055459892,1.202375324026032,1.6234277274261775,1.5385322493868103,1.6414894647814773,0.5112108982885321,0.4295616001359005,1.474803255115714,1.611687512833052,1.0862750320832983,1.9094441361420715,1.3643811653662927,1.0220964672794366,1.338842589968364,1.3147500361548374,1.322256594714519,1.503790470607389,1.2799707339367494,1.3605235954708863,1.6647162789414738,1.2083256527142745,0.5913409904669481,1.2574011028442431,1.4061681486380373,0.9387302714044539,0.20515835442920935,1.01696336106049,0.9241924797551562,-0.8550800071130498,-0.14458257227847063,0.36510326120825226,1.1079006280867614,0.9874103619347154,-0.19049252774899744,-0.006070024915761123,0.7378719344463939,0.36562260442858024,-0.10473164690346227,0.46854312688083594,0.6225599901619799,-0.4624317407274646,-0.09515470231389746,1.0382308939710212,2.108383570945432,-0.49725995703156595,1.3702000148546762,0.251551338202831,-0.0895672401324203,-0.21018194488207995,0.4805830946164348,-0.053208333159135146,0.2507351154930161,1.7789922847905382,-0.1644575420418317,-0.24718825436179961,0.3152794215478898,0.4908221711025362,-0.17257261240631055,-0.020807349153519776,-0.118543656392682,0.4514724499961202,0.32572135720457457,0.5454555897396465,0.6821742870686052,0.031199301434251363,-0.1366257427756857,0.5867334928264188,-0.02484877237593571,-0.4549787383419014,-0.2950833017094971,0.29593718176341455,-0.22883146021257808,-0.20324044128118562,0.20075206665229342,0.8134527312636108,-1.3401890346792102,0.35853410214865694,-0.6788487790269434,-0.508890829708782
P10,-0.07523437543427579,-0.1415235022555291,1.2521894553838864,1.0539260743187338,0.6707329312936728,-0.38714345895949154,1.7855051324099318,1.1718419899033168,0.24268896049925456,0.13906616218256637,0.4278201692234666,1.2347674990430801,0.6005817935964002,0.3030392016806322,1.5212984665917344,0.2774534178059842,0.29863073203210166,0.9502215992198779,0.18452302068170734,0.8257153691305686,0.3872829376398317,0.5183583959194363,0.2792602714569077,0.7993120460938354,0.7196938982739474,0.5552985257592844,1.1115263864391522,0.49423765174835504,0.5865248919915974,0.6910819269442126,1.0333703478082135,1.0073871753987276,0.9114492810583915,0.6268630740363845,0.7304149094518774,1.1214828172940972,0.029661452841067953,0.193430957680464,1.0968045945026554,0.3656454320940056,0.8478468685076055,0.9215368867617932,1.0861196916539355,0.945026704562412,0.9711251546092966,0.8660904010608196,0.4060301068974524,0.5019735826990924,0.43053621293826494,1.0110443759091094,0.8822452726296356,0.7608197791311385,0.2524029653584296,0.8527164385266363,-0.01214718577528821,0.011609295207267481,-0.31031481920209486,-0.05160550407866337,-0.12724003290725622,-0.45093486360302115,0.13289778578800474,-1.161135696014842,0.8128946056261698,0.4725447578952788,-1.794549652396435,0.5695926640448737,0.6030995634788011,-0.02325565292884608,-0.3991933103810739,-0.2736700325558514,1.081225122979549,1.0926950751602522,1.1335484678897085,-0.32895418912743124,0.4422360267659473,0.560297643790329,0.9122870235338816,0.04643072021875461,-0.22378663685094027,0.5130592094323292,0.8027098955125365,1.3520722845616748,-0.36864866023377396,0.49893164281886854,0.7290634507346508,-0.39066594976963076,-0.07799618947326827,0.009439031185287295,-0.278186831443465,-0.2630726582929169,0.3932692582544089,0.2001367354090497,-0.018430115300104962,0.35273266538687414,-0.7928528961890415,0.16168248706337965,-0.3120928512894887,-0.9013952438160746,0.5106405341784559,0.033324682459051694,0.28774428366910765,1.1659439359276376,0.43708206899446744,0.06588130900502817,0.7741088039391512,0.6593549800747059,0.47863268187168956,0.17837000206898235,0.3824716132644878,0.2020131920174019,4.360305491590581,4.585619420892311,4.092736698349999,4.148712719730096,3.9226388870977074,3.905281428738289,4.493554126678469,4.799655293146362,4.5903574287062625,4.286991771422124,4.236517210100435,5.328405320716096,4.703322593206263,4.640723959276256,5.063630840066937,5.051956711953552,5.02135447068641,5.27428262290506,4.877905589452591,4.62723329633777,3.948195701587176,3.514340493232749,3.706408653417307,4.159225910999057,3.815467800703476,4.255732437908011,4.257091181655025,3.7909361975163143,6.110689953797143,4.309721802798938,5.227324213252754,3.7047229337654097,4.4282862479900444,4.15363975971747,4.1147971203356075,3.9236323096813988,3.7478577599691763,4.5067356355682895,4.309798132082498,4.044914481204433,4.9907195494300565,3.6203554720347326,3.7324085043078297,3.853956184327906,5.0119255870216515,4.53385664941334,4.306299632832223,4.679758221814785,4.556687773524064,3.7642107562629636,4.593600799995406,4.788698289682094,3.874871363350452,4.777669040742438,4.649949862147093,2.2782928680616257,1.8970119340025169,2.7113404739345186,1.7127553855034774,2.483347340302013,1.8030769579661012,2.0418837086946278,2.3254865395260196,2.3934024067202584,1.625152103863116,2.4009710133851114,1.9402924108843518,1.6984808459678509,3.328799978792849,1.7296602975798874,2.8258792833595296,2.394053136840586,2.3915331496126027,2.3781704756882593,2.5741714697408984,2.0462171729999077,2.274881236865865,1.9156800374119018,2.2224486638360816,2.421886447939543,2.8809487467407275,1.216166961857071,2.232490606869144,1.8174888489588505,2.0454576992713958,1.6429171259888748,2.349852926177164,0.9994614520753083,1.6358530058473384,1.6551738761796786,2.0782788636548495,1.9004256190159896,2.2885070054137597,2.1773890286492006,1.6537946556598861,2.114330281373511,1.8937191936082292,1.8875984435547055,0.8044717183272367,1.7137951637142708,1.4442256324493932,1.5177892913995163,1.096144549379067,1.844630297278299,1.4295627738105845,1.2240639373610551,1.8619435280367378,1.189311224158684,2.195158004964301,1.3916791106710464,0.5686065629953978,0.8987131644689415,0.7194194242778105,0.8075469239932612,0.8151936356563352,0.33775098751360877,0.45944797852396096,0.5540897305331295,0.7340839658670295,1.0166285367506833,0.7430574950079276,2.3264874590901643,0.03537149607548203,1.1810924338880908,0.9502385173962716,0.5956478083159258,0.8920033205015254,0.5488545573025302,1.7456160151497275,0.9101998442394045,1.3974320381639598,0.8980898206809209,1.2650490792417237,1.187584653888253,1.3840857298883782,1.3642625006192037,1.4399873918931516,1.4194421937546962,2.359685221395452,1.236764468745974,1.5489475064265694,1.3973454795934617,2.098511240421328,1.0514421541219556,2.065887662346198,0.7115253554673082,0.9089247032716328,1.914967866256397,1.4039855146646802,1.495718870399356,1.5484895769398503,1.6031806400277238,0.9992665542628509,0.5637444054875681,1.6657216102499581,0.16265856319059838,0.14065183882206891,0.6305529420609647,0.7094984009674518,0.02207599241642663,0.6272109374294471,1.4594572452459904,0.8280280234804509,1.3177733924190198,1.1471863395966957
P11,1.7844691085411053,-1.8087987235500764,-0.07002282966354623,-0.46203232234893143,0.022555702870404083,0.013320451770191782,-0.04168950676150551,-0.08979785717848815,0.16803609592712396,-0.045304505827540635,-0.12533005144660123,0.22408079167890113,-0.49261262899279884,-0.255216239962147,-0.18760538753263584,-0.4312024491913338,-0.3634907987401769,-0.0436945376069875,-0.2523115373557479,-0.18601221133741092,-0.2904934705537331,0.5110592261730585,-0.7570294190358032,0.08411084404139012,-0.15222721878616582,-0.48894705921686565,-0.9104938767667361,-1.2304753450420842,0.12852008934322312,-0.23246819670673055,-1.2224183732398761,-1.0355885940841547,-0.885294016173995,-1.5835786630768867,-0.009353831525005634,-0.39193862741492297,0.8182340990262311,-1.0902565958545911,-0.3505457469614874,-1.3867147348035276,-0.7101819820735288,-0.867058332609327,-1.1060246762795294,-0.6045257685900188,-0.21243686050450708,-1.2079236621810046,-0.765824783665355,-0.31477456507810847,-0.7383665742255606,-0.4138570206287079,-0.6329761966506191,-1.0824743739003653,-0.6678687944341223,-0.4194217310548528,-0.29752211254854805,0.1582409052543027,-0.18865062200705934,0.31759438989126865,-0.8780949642551542,0.309786931833269,0.3841613032160726,-1.5713765542503073,-0.44990778976580426,-1.2058817717703427,-0.5596098308881123,-0.9854992423225575,-0.08861651569488965,-1.9185077675722126,-1.0581215601515377,0.0751359925728404,-0.15884307237444759,-0.42534231306400605,0.6614649289575981,0.06800757997321456,0.2713457678901171,-0.6140375935769021,0.36733798420923947,-0.030637417140864466,0.7237037933647359,0.33291915316995746,0.3263381974701484,0.14574725270817968,0.455613949807007,-0.012660536205148612,-0.9861859003327226,-0.2621673610190052,0.05995907788253069,-0.5068473173480329,-0.12409350875219954,0.3181921651708059,0.2529054247197263,-0.2587162278096673,-0.2662802792124349,-0.16835358906759115,0.6363645197410697,0.13095282448200177,-2.7635817990790192,-0.2939334941643746,-0.4969218071635766,0.31802766137391114,0.10601269013666083,-0.24486681582715236,0.43103416367978525,0.025875431867057198,0.05796870769024116,0.9565934263825956,-0.4643523223416963,0.6126694851610309,0.2551308446497917,0.4153656792137046,-5.997247780507031,-5.918682042857668,-5.153461336903842,-5.011530557742347,-5.316870300066011,-4.826913047539252,-5.65649805608272,-4.884544418148504,-5.186713177464859,-6.245567079885277,-5.1742701712238,-4.610660913329036,-5.059925511812766,-4.902040159902367,-5.328140925324566,-4.475076832203247,-6.059482326715186,-4.261100393508951,-6.7448106028899835,-4.680467177614348,-4.569753659222913,-5.094834030985387,-5.178611606175378,-4.975131890328325,-5.637305272618445,-6.054706794267633,-4.934080823692502,-7.096562168189891,-5.413618932042338,-6.7566246793648155,-6.567824656340229,-6.081613389636064,-6.208074740698362,-6.7230212391556625,-6.85819824543686,-6.56374197720003,-5.936361297045157,-5.5168103257412575,-6.085225123529868,-5.969937149958963,-5.475173125920798,-5.602773345839912,-6.49612268064572,-5.047450267668729,-5.809962328132454,-5.193118232825629,-5.841267392517689,-5.477167612112824,-5.543941494229988,-6.496190107627442,-5.429374097292396,-5.73321961980492,-5.109804047080192,-5.8603463474440245,-4.7100054038238435,2.6014598224858125,1.8211923046767573,2.1820136609320677,2.4968900760899637,2.1772217463008166,2.929900484809377,2.7299013464511006,2.0903502789637076,2.3828299476791974,4.053730574488251,3.76346964678093,1.7168129183249032,3.0988565408896065,4.099004972355113,2.705553641392748,2.6706459551950714,2.4801800972498236,1.8159032318760717,2.8248022655695153,3.1929726803738756,2.812774089175205,2.344844280707762,2.1804624192823785,2.0877538118130663,1.5566424226165938,1.4295512226600107,2.2879332360939557,2.7215559060437258,1.8555169358319097,2.261770709429813,2.880180727668439,2.4067198230732196,2.790225691907305,2.4990619804386127,1.7218456663221469,2.191617654507953,2.0950436975134688,3.034697862272369,1.2348097483254694,0.1731451005466989,0.4559140148389597,0.3991536132589553,0.014301608545840134,0.44147424809288244,0.15632050134645603,-0.4426637182555554,1.1927018804532656,0.524665832617882,0.623252095014139,0.5098601805115593,1.9131942510833477,2.8615071202966234,3.3511817189736615,2.2160184661827196,2.7800099694616645,0.5524948383019667,0.9348629795341059,0.9810967256615651,1.08851834942546,0.746860463920837,1.294569308622089,0.6080631511564815,1.2442994817704436,0.86431194948075,1.7037695860540414,1.5172412395671446,1.4763965511467378,0.9404918070354753,1.2406058919543672,2.8179894936290566,2.092637521911364,1.8924225326710655,0.8509128684204079,0.9299080169851158,0.6444336446582617,1.1796838125652256,1.4018216001214912,1.4675539065982688,1.3305845470873428,1.2159733521497118,0.9488975857251859,1.3232644188171512,0.594904686126753,0.9635346329956024,1.1764791039653468,1.2716613041098155,1.1760921777151883,1.475925481842663,1.137199513646504,0.9065998601490546,2.057865690303528,1.204245362839653,1.5442829329779997,1.6239774245150436,0.833792979166149,1.0950545077961267,1.2887645982550573,1.29663267068954,1.7541069956379773,1.0664044757586397,1.620082360952115,1.036957478966108,1.1221789833335205,1.3543014373841775,1.276082077770946,1.863055312250477,1.9346173742503616,1.1664271973148144,1.3812436744813423,1.1373803310808193
P12,0.709661444019261,0.3806633128824048,0.5153279641753018,0.5647168872424024,0.21800471608634853,1.0732884559617637,0.6830020305738244,0.4275622966558201,0.8684847252394712,0.331834428331623,0.4551626808125216,0.31670288055733425,0.41697482232275773,0.7138385201583578,0.6347954586740849,0.9668663934404679,0.9932126976723735,0.43431845713278777,0.8046960792834256,0.24854504332541472,0.8788509881127795,0.19136296038172695,0.6764972662155182,0.3464396740221039,1.2073227571421246,0.6638613786824734,0.2293293790862667,0.24212178078417604,0.6586428333347953,0.6601837849912222,1.104057870082345,0.3902815020321694,0.16554627426743695,0.4647228879647322,0.7312203954203575,0.6416978351349327,0.8901749345558002,0.48418513431139903,0.22818445542586355,0.7666877841351377,0.21061684029962072,1.11351584205376,0.7734885638882673,0.7106249393352341,0.22242607206682008,0.5005430979566444,0.26429813699896193,0.585827455238182,0.6526501097321701,0.7661940698620763,0.5212746043048031,0.4356460479282485,1.403288872145891,0.7901155081985187,0.7678269968650445,2.6147283154107526,2.6835186364182326,2.4395496250821935,1.8157981115745738,2.761337330562887,2.915498345533571,2.5320694415802105,2.301666577432982,2.304469032794299,1.5944760105228761,2.6997060238819035,2.322281705939738,2.338756428226088,2.6391269986023063,1.8774561067017548,2.2868640919522494,4.942999040874034,3.366238966428844,3.4003934178154163,2.1815056846155074,2.6423068452726355,2.652360712553669,2.975010914410749,2.7659956195586317,3.4734072128282056,2.6694633392962435,3.328589866730491,4.068711569332942,3.5984374224896065,3.20979673879634,4.265202803597664,2.437951818548595,3.8944990830893453,3.654892137743113,1.835133311279876,3.6895869017886134,4.659133393575025,3.1956630790265295,2.702528745982882,3.326869014646621,2.7026060418322246,3.2659551910128792,3.4990272871219594,3.0963597404779497,3.4101571474559003,2.513634443110618,2.2562504916760417,2.8397738709974734,2.3484186110075664,3.1772859922040317,3.355543146110011,3.2152332662455767,3.2927782955067704,3.5499847431991793,3.5034795377497283,5.439772991440095,5.3712448880077925,5.38328916913545,5.686782492573543,3.9018549722211358,5.495616301655799,5.432750977572462,4.159406367030911,4.688025052119874,4.862059811422672,3.9265614298183804,5.455164058124876,4.886931430657031,5.240126774856292,4.759772637053236,4.830872059424248,3.551589235895429,4.741330835276094,4.422847698773377,4.740427490364201,5.19418558939894,5.502698637143181,5.113538700312417,5.554079692541158,4.929906724418433,4.891755229300911,4.8183862654126886,4.289168692843686,3.8933567629157726,4.52895442177412,4.125089372324504,3.9085693618449664,5.1159238062534005,4.373324229698016,4.6631074015418985,3.9933906668933186,3.8166597970070875,4.4911927701446235,4.2046472216345485,3.847073657808315,5.310563786549714,4.8974438261977875,4.181015979670571,4.235830569993641,4.664900738752133,4.652150628407078,4.750535029501808,4.7413411530102545,4.56836306036619,5.032015981077937,4.088776504112994,3.9768365029609796,3.974317175399879,4.381052470926795,4.12450937113469,-0.471857038143657,-0.8606172883584744,-0.6157010194021341,-0.1961597929088336,-0.2813418746337175,-0.49995742044079644,-1.6252572395183145,-1.175274562896504,-0.714070016202348,-0.5402965871646846,-0.3443914615050684,-0.6061868765764133,-0.8877140582016825,-0.8270505553530096,-0.7335723225856874,-1.0250655345796624,-1.2418118786158754,-1.4684664552368467,-1.5851238715834455,-1.52979981640537,-0.7393076561751082,-0.38482056493497774,-0.9686227546674148,-0.5440462458213509,-1.2877092283790221,-0.19140668972013447,-0.955988163961212,-1.540480283716503,0.48757023381393266,-1.2322279317214184,-0.8889973153778882,-1.6876209651713043,-1.0970841797643056,-0.8732061607723032,-0.8958950800002201,-0.50478668522874,-0.7394641922378438,-1.1037289000116595,-1.845558892746972,-2.04894793687336,-1.063135844248593,-0.5048978356769277,-1.3344306124828234,-1.6454656282174902,-0.8676529045803649,-0.40796077757569854,-1.096596683142272,-1.1904479451918213,-0.35017687483029886,-0.45115326382376647,-0.6092912211990034,-1.2587392127869712,-1.3409502791348347,-0.5928495822604373,-0.8084832970408024,-3.2210540080221572,-3.0463455522823035,-3.137277346676747,-3.0836000252740923,-3.1757789034070325,-3.238692048082906,-3.606164510391534,-2.165586394305752,-3.206639591847363,-3.2945036373663235,-3.024011428762307,-2.7876692389642015,-3.1616165991858725,-3.2155197553761314,-3.0194078279149177,-3.250930052320965,-4.33614610480415,-4.408914096889721,-4.325766649619742,-3.3252267990086155,-4.054623823965155,-3.2801085484562065,-3.1966574148854585,-3.1692703720095996,-4.042009158831586,-3.549815712585794,-3.0320510913505765,-3.063175349979682,-3.9468016838291615,-3.5296028812219187,-3.245994021384791,-3.1713877354416713,-3.14246915936546,-4.502338509612209,-3.259949960862669,-3.183855597313765,-5.182165403099598,-3.9968443365320687,-3.4493823013611284,-2.9726843245151855,-3.1842651941873497,-3.3732715131480284,-4.606319527982865,-3.376922805934813,-3.1557914610316775,-3.8061774497475827,-3.365616817962734,-3.931352028446803,-3.458231432416172,-4.048830532898356,-3.5593709446371906,-4.870430998472964,-3.5820624891690795,-3.4795577390473467,-2.6884309371662565
