,F01S01,F01S02,F01S03,F01S04,F01S05,F01S06,F01S07,F01S08,F01S09,F01S10,F01S11,F01S12,F01S13,F01S14,F01S15,F01S16,F01S17,F01S18,F01S19,F01S20,F01S21,F01S22,F01S23,F01S24,F01S25,F01S26,F01S27,F01S28,F01S29,F01S30,F01S31,F01S32,F01S33,F01S34,F01S35,F01S36,F01S37,F01S38,F01S39,F01S40,F01S41,F01S42,F01S43,F01S44,F01S45,F01S46,F01S47,F01S48,F01S49,F01S50,F01S51,F01S52,F01S53,F01S54,F01S55,F02S01,F02S02,F02S03,F02S04,F02S05,F02S06,F02S07,F02S08,F02S09,F02S10,F02S11,F02S12,F02S13,F02S14,F02S15,F02S16,F02S17,F02S18,F02S19,F02S20,F02S21,F02S22,F02S23,F02S24,F02S25,F02S26,F02S27,F02S28,F02S29,F02S30,F02S31,F02S32,F02S33,F02S34,F02S35,F02S36,F02S37,F02S38,F02S39,F02S40,F02S41,F02S42,F02S43,F02S44,F02S45,F02S46,F02S47,F02S48,F02S49,F02S50,F02S51,F02S52,F02S53,F02S54,F02S55,F03S01,F03S02,F03S03,F03S04,F03S05,F03S06,F03S07,F03S08,F03S09,F03S10,F03S11,F03S12,F03S13,F03S14,F03S15,F03S16,F03S17,F03S18,F03S19,F03S20,F03S21,F03S22,F03S23,F03S24,F03S25,F03S26,F03S27,F03S28,F03S29,F03S30,F03S31,F03S32,F03S33,F03S34,F03S35,F03S36,F03S37,F03S38,F03S39,F03S40,F03S41,F03S42,F03S43,F03S44,F03S45,F03S46,F03S47,F03S48,F03S49,F03S50,F03S51,F03S52,F03S53,F03S54,F03S55,F04S01,F04S02,F04S03,F04S04,F04S05,F04S06,F04S07,F04S08,F04S09,F04S10,F04S11,F04S12,F04S13,F04S14,F04S15,F04S16,F04S17,F04S18,F04S19,F04S20,F04S21,F04S22,F04S23,F04S24,F04S25,F04S26,F04S27,F04S28,F04S29,F04S30,F04S31,F04S32,F04S33,F04S34,F04S35,F04S36,F04S37,F04S38,F04S39,F04S40,F04S41,F04S42,F04S43,F04S44,F04S45,F04S46,F04S47,F04S48,F04S49,F04S50,F04S51,F04S52,F04S53,F04S54,F04S55,F05S01,F05S02,F05S03,F05S04,F05S05,F05S06,F05S07,F05S08,F05S09,F05S10,F05S11,F05S12,F05S13,F05S14,F05S15,F05S16,F05S17,F05S18,F05S19,F05S20,F05S21,F05S22,F05S23,F05S24,F05S25,F05S26,F05S27,F05S28,F05S29,F05S30,F05S31,F05S32,F05S33,F05S34,F05S35,F05S36,F05S37,F05S38,F05S39,F05S40,F05S41,F05S42,F05S43,F05S44,F05S45,F05S46,F05S47,F05S48,F05S49,F05S50,F05S51,F05S52,F05S53,F05S54,F05S55
P01,8167929.954069437,8140376.895279635,9600647.03631394,6730685.370895605,7902568.065910361,5151100.866482982,6658307.931171463,7532688.635874584,7207137.496843668,5635665.915293429,5583004.2157195425,6455830.222024357,6231916.381165384,7223183.807200938,5810950.975202786,9195209.457608595,5974301.010744596,6563050.253447093,6814029.218308552,5682927.257604568,7925777.571413681,6210815.407751666,6942298.43420863,6627160.590972245,8481014.081043335,8415630.330583794,6719594.051575273,7244676.087736036,7282625.159938434,7244747.743553365,6367483.971987779,6128425.13569886,6391603.791597433,7313304.13536316,6163752.78081762,7807884.07129541,7925096.218308069,5573301.2846141765,5811055.787115609,7542670.931532436,6772527.606684235,6606293.159641961,8012356.6527848225,9238463.429417498,7087686.358750502,6780171.378944725,6070916.999867674,6544937.094778277,6380775.619680354,4561385.515928492,6352913.852960715,5644624.458293518,7514844.771525603,6142224.899390664,5871405.236179873,3454141.641920234,3114399.6532719946,5398658.4377847845,3100900.18042539,4827873.942969735,3549183.775919186,5248176.203738712,3141554.181149248,4595743.659585064,5342984.900431216,5496859.545558109,3157394.85502733,4453030.528538955,4891573.55470522,3720818.59768704,5587297.819487866,4827045.581930194,4688968.652116648,2508166.58323217,5462017.774612581,2999749.0707576396,4757450.477637248,4459611.629311896,3869124.6952030174,4304681.408427862,5102397.6531258775,3540769.898624016,4335365.797330258,3531702.096510095,4303913.567740293,2799736.6244157543,5307718.165667657,2938284.1134995786,4964564.056223122,3129163.638830024,3336640.467588494,5738484.760265801,3452428.066683731,5172314.870982071,5123328.026320726,3106314.2983991206,4268714.280251746,2954583.25654781,5075160.764715772,3506453.648299476,4323990.951482673,3146117.981483683,5214335.26839548,3187938.5226150276,5425508.338213759,3283262.8035775684,4658570.566331666,2967990.5256457143,3893548.996737356,3674811.168148793,6156606.530438772,2441710.7371771783,3258965.9399643354,4022023.2612013053,2150767.51267739,3725670.8316042954,4424447.244201961,3813216.7484453963,4626583.974107185,5489146.044212664,4557000.01110054,3983650.080859603,4672575.430975835,3175108.673672417,4471665.988846874,2442182.821534714,4699538.10054771,2742664.494732858,4145487.270588532,3652874.2257220764,5443707.495505258,2814544.779294815,3775927.7072317237,4970289.641254015,3232493.469526886,4695957.894180238,3493978.9118501255,2320601.939832991,2078325.76898785,3351401.653272588,3114347.7420958,4185348.604299807,2637471.5895016463,3504649.5341041796,3723129.413392242,2944947.8076431192,3310812.1195005523,2480767.9948261594,2995861.460351728,5002254.428223279,2744392.901733989,3867005.3186952434,2579371.5277233887,3602941.7687516133,2639600.7975833816,1635737.9087254955,2972704.133788012,465647.1854174137,3428513.7729553357,1735775.1924521876,2073546.1280598657,2423548.734969516,3036730.6962909857,1712806.6390936715,2984045.6023442433,1971667.9243106649,2048135.7411946484,2174734.5674397633,2535361.490996086,2298433.8826563754,2725366.978341532,1880538.5937620942,1693776.804027027,2348544.5361772785,1853032.8184982191,2205052.970326011,2872105.6645180928,2044384.6552030053,2298783.85525632,2319991.322835599,1908893.1091895131,1917063.0365538562,2097996.4259289075,2129831.0565963434,2049082.808739698,1662016.611588024,2131515.823982322,1508384.4087675312,2028604.367795189,1874074.9770964785,1458915.5259348685,971244.6369244268,1239189.638715502,1905647.3975326032,3148616.569191763,2277279.845519604,2183757.600675449,1961353.666052773,2058324.9772230838,2604244.6647660006,1418544.708302585,2512325.5543929385,1992111.3697414622,2151485.7414615387,1151317.382306004,2454852.8506462434,1501524.164637966,1448552.4241381288,1857928.5348651453,2419478.713649902,1903346.5647459002,1776660.1856861261,2122359.165162346,2362294.3328880956,2081511.018502225,2032785.953322353,1991697.029145739,2877548.636909898,2129817.5345440563,2364220.98959082,4575199.407050732,1486017.385913243,3970325.8649868546,2429715.0178293474,3543399.8126436127,3013673.210554146,2964652.4763583974,3816746.120511266,3726804.425470264,4932526.961490831,3073924.7804495743,2763544.9416933237,4399887.466023225,2708372.1684870534,4244395.372724602,3131089.695975544,3282436.4973311643,4044511.848644473,2842362.9820715697,2795404.881824103,5127982.336509235,3489633.117500307,3351049.899463862,2583120.326084146,2630198.5356845595,2097523.1133522443,3445555.8896195167,1417014.8886177845,1348602.0238175672,3561182.731711732,2726343.325233549,3746301.030372817,2633309.067565202,4727885.008001674,2697790.5775673673,5144001.701717975,3225898.299532947,3333034.631605773,5877186.638240205,2895007.934790342,4309895.478028385,3484833.3535698447,2708626.5320862154,4570912.666175066,3651741.569028049,3247227.221103175,2326095.35652317,5104476.940794175,2111504.618549221,3868284.034509373,2666117.2976392135,2960033.47601456,1832056.5820877142,2000638.7670812756,445050.88200423756
P02,2014867.0570086755,2451715.9731742744,2117322.9894231884,2482511.483892497,1364329.1601881748,2309181.783759403,2353156.5863143015,1737385.8941501318,2283352.562529902,1884357.8430048283,1557045.6123737292,2190590.934582145,2300360.2599538006,2566013.7366471994,1303806.5671526277,2027196.9276313907,2217549.238446223,2494574.964846302,1961480.2017275994,2538993.4979418223,2165169.8080757437,1848472.231324723,2085560.4220391433,1895147.2532576025,2565651.7903659996,2053973.3910342532,2159105.6303898995,2247184.2741803266,1973339.8332319413,2328345.16873807,2387530.9704038836,2405914.424594852,1970075.0754471435,1355390.3327245037,2382866.659834043,2720425.18338403,1736726.9807826027,1928005.7704645074,2220738.5859049843,2714981.5997931333,2055778.9371817084,1846626.0433481373,1665249.3425404134,4283284.224650499,2737771.939138378,2104444.669482129,2113595.588851587,3272442.635458119,2070189.4051850608,2462320.5160750924,2327136.6418634513,1715152.0195627483,2211197.6865893183,1638165.539129493,2338049.3513463372,2690698.974208266,3848342.1565161087,4453431.201558798,2612244.0268371357,3234751.0585226105,2523646.3760617557,3437700.2699328777,3002546.9888552036,3846116.7980858227,3793103.89187192,2868508.036066032,2826773.790425501,3968818.356979375,3426274.025152147,2690947.639103515,2780550.45044238,3636759.8219650392,3353393.359021507,2930297.47601144,4436063.309957762,4389278.569056496,2188729.204685797,3482181.517876156,2984915.228053895,4533449.281875703,3050656.2738605947,2653827.1665993505,3942608.079310405,3781689.620772443,2461717.94944288,2850772.5402264907,2225388.512922865,3135688.864364089,3337090.6360928817,2580758.408313928,2635066.41047762,4001397.125451507,3555892.4193902183,2458394.7435620786,3304404.2383711617,3174707.924980306,3722549.5251568067,3726876.1744226934,2758342.7235342367,3906744.319453066,3835940.9618698563,3855016.6252264953,2645663.7470500986,5154438.33949687,3070856.7007115623,3074962.2938183174,3687706.9858467076,2819997.7055004006,3137322.9662558325,3293980.290249601,7537330.652229937,11205822.539833868,15525826.139039796,22035633.29705314,16928489.071780615,8335012.04111689,4789244.483938384,3506174.1498652846,4804691.109030589,4408273.420251316,5201582.360687107,5102514.729767141,4804889.288880859,3638915.387279989,4707076.257605144,3104270.3031126643,4287202.371727225,3242306.078854032,6759771.829250603,4080102.9787812233,3701624.7691726596,3834183.8343323567,3319192.0897984887,3392657.4056965355,6195172.872977247,7176314.057237422,12720732.197419241,9742841.620229652,3507488.676125246,3298327.3535651527,5319457.105724677,10995541.197848588,10537812.300398022,3618175.8886510273,3421545.4339006846,4534056.481979124,3077118.0395825226,3812695.3548735147,3343816.2185101714,3079728.0576164466,4034604.602414147,2783485.603109348,3920739.253567231,2583107.3628424564,3052277.121463462,4622066.595799006,3162984.957592883,2978365.6593331457,2924320.309792489,3845432.1561470022,2691472.98509619,2773173.166806844,2892979.7841127226,3529207.694060558,2641141.164818223,2340231.8734517056,2306104.0121500795,1829191.0420868262,2278609.8962364974,1933444.1326688775,2126620.9574731807,2100576.867747734,2027719.9452465735,1952520.4130455523,1991757.7299469667,2262499.4390793103,2261893.5486882273,2073253.695488703,1730069.4160928107,2508001.5129098436,2043941.780341112,2668459.115690727,1799101.9261741466,2296388.0246679257,2009385.4859389896,2289736.0189793967,2369645.5736213787,2547800.026996373,2467633.198283364,2437204.1508986764,2078101.1678739856,2461676.492681627,2597812.9294092003,2330320.564202655,2155561.083123723,2085899.8820147095,1819928.0346248827,2111317.8710324396,2177452.6280102804,1953056.5394260176,1784712.9898416558,1828888.0852493974,2373350.2259448785,1701090.6743015563,2248867.202148087,2331520.5575737646,2253268.9939765986,1810710.2850004486,1543467.5043982617,1878870.887562191,2411332.1457327516,1371003.3262094879,1989126.0812861384,2288591.720397907,2015643.576723348,1945253.686594301,1939491.0337937279,1906156.066521489,1798157.460590945,1717449.6741141742,2592397.4144089743,2965091.3813366657,2709782.8043489605,3124942.3835713323,3164802.0350298695,3091485.2754367837,2390260.911520555,2670856.302559011,3005374.5239144717,2496127.1311340863,2369523.7529109744,3043169.1897634584,2705451.288774114,3319891.6508160913,3015587.6549169235,3039222.0602078955,2579217.435700939,3778481.430918825,2434863.56106629,2260060.777986942,2716110.3448129743,2116280.330340187,1769029.5512956376,2512185.840101505,2300464.4432047,2224308.739502634,2595177.118773604,2938592.2102303216,3138147.875475741,2578095.0064050467,2482459.601821022,3321213.622063086,2302677.9152678866,3040513.896429194,3199450.9348258097,2548433.9743362395,3359831.963091911,2771783.7133591752,3110399.5298447036,2800193.1377488095,2767378.8597142613,2952916.4409522973,2963463.8280066205,2494198.873671836,3027589.305806417,2147144.825062567,1936292.9141727635,2034859.885722418,2255579.035496284,3946226.855251041,2786449.0455628494,2418806.5576353846,3615586.6921328306,2223694.9326280775,2659577.1181007028
P03,8815992.832183026,9859400.599146245,8925799.982047047,8731467.484537203,8634822.582786612,9607151.434511337,8722810.728364851,8711627.071414117,9836725.229260635,8895505.40428349,8832964.870505627,9021329.102019485,13969020.978209712,8623113.75447151,8850848.456974633,9624393.7159676,8856786.052418102,9104306.876102127,12692855.406843832,9570939.273708861,8771305.755669415,12877929.937829006,8869680.19368422,9084693.753368909,8877445.641131522,8844706.680287909,9572258.130750958,8600546.176821914,8795680.171715979,9244123.633608405,13440397.520629559,8659986.935823148,8769374.436390763,9551915.88824787,9029784.331298921,9057279.838418055,9959497.74545827,13015770.80509048,8689933.281448934,8665906.2535033,13877046.772604238,8652541.803267483,8631057.509067183,13137547.579011586,8930367.589278683,8447541.727857154,9113905.862615287,9728109.475233832,8586670.228618555,8582104.297818715,8994154.020389916,9737790.228543583,9079836.734635908,4594030.235693098,918923.4509169206,3337061.094803447,2389368.7063701716,3293391.6880614,3245134.714071664,3189497.825379826,2894579.880051189,3105623.9111888376,3642167.5019750027,2967416.2196953157,2860949.243763073,3576177.622465686,4328225.676405158,2472510.8813666115,3058887.5074043134,2972740.922152393,3790438.8251731303,2448144.224638042,3293548.7778698714,3783376.501160996,2765167.0000524875,3943005.9058887633,3383405.976091673,2646114.3928718725,3397315.307407327,2182951.0798167866,3150807.706293853,3690203.5653291997,3335399.878955804,2439255.602814052,3149731.4370817486,2994778.433023951,2302289.3789157234,3657723.263941223,3065801.1354088364,2039916.8538725828,3409196.5986432936,2473585.5731029655,3046342.7682856526,3343731.098849992,3245304.982496743,2570714.905432745,3248212.9804612054,2405643.191900758,2861597.376742812,2972281.783573715,2988992.816600358,3512857.547903355,2938516.7242320166,3349119.5755665866,2869520.973410343,2491019.1191283436,2976155.761329409,3764465.349316085,2827625.2256859923,4032511.327018064,2215863.586276797,2295907.785168223,2739529.6778749702,2032669.493701125,1818329.1319798813,1367604.4655230131,2002567.245739388,2178376.516557392,2013503.710493641,2303285.656719076,4313076.408402512,3216269.696058085,2997689.475341985,3205421.529199289,3004869.428985037,1668726.2737242095,1950293.116241004,2423125.5698230965,2429793.129073275,2095693.4568558552,1795864.3638384608,3177836.8976106886,3654383.322847195,1649745.9108583357,3039886.4860091377,2880222.1497980407,3837339.2631519963,3085239.8044584347,2530842.145208925,3449999.1498511685,2021546.2232206543,2931490.460966297,2825819.2138630385,1668932.3525951216,3535853.9894032865,2508340.542135574,2176608.5213179463,1991277.9328389876,2597586.960373559,3405770.34459562,3803994.6505759954,3936590.2130528856,2399527.120501551,2306094.5705793477,2147502.37653125,1998182.4743503463,2589621.103654541,4510086.260623362,2233964.6606664266,3104768.1160414917,3670410.639465071,4336231.034048337,2425087.158009151,2252750.848491318,1774173.7812132756,3247144.866391268,5775851.371375635,456862.0541520184,6629175.16138814,3010154.403501149,2962982.2031223094,5565014.129264034,3084137.207117834,1470143.753851755,2988929.1820434895,5679670.538543062,5800466.45434076,4948027.313893676,5113240.016503773,3439167.368948976,5484982.253310487,5839566.944138831,3252800.454573795,5596193.170322811,3998567.4308221154,3827339.725858814,3548075.5322631653,5782272.588287113,3121584.694419868,3926286.5721963597,4246363.218425169,3500692.206255199,5296663.925758893,4022754.365912988,2505905.379430388,3067598.0782014574,2190291.1618009373,1649824.1385211379,1390958.7146131517,652561.2685033177,8204788.303656446,5518140.886734279,5606279.719082886,6042119.004200213,6109746.5363769485,6310630.215008955,6241752.879645603,6369887.305772644,6538035.89448862,6970916.585998574,4035952.9076105813,6585545.249749308,6612649.321686301,5914997.748255232,5481771.589555781,3819214.677970637,6957155.543224469,7165862.599335788,2049379.9795590579,4462151.947365583,3559028.901038014,2497548.832610026,3084185.503487971,4016168.34062165,2579849.1303355815,3053076.715399084,3061444.5548502845,3576611.2071013837,4187258.7004176164,3205403.804425628,2906778.581527868,3643753.732425502,4491012.634597028,3573891.6447273847,5414963.285357872,3909702.389175504,2951078.460506373,3314554.7127352925,3013963.087731011,5034071.892927652,2715075.3868385283,3485386.512031667,3802628.9232949745,4069766.8454167894,4133408.043981934,3364201.3962942213,4901864.84351915,3458519.2128018807,3573734.671337788,4645536.215993894,3683847.892244134,2901357.9208133835,1846633.6280378192,3334818.9196667215,3056153.346103437,2796351.3381700604,4126080.3082194366,3110596.7201345386,3054016.9200514746,3407567.8985873326,4891800.425987141,3672841.809002857,3803801.511662998,3131769.1630953876,4451904.397122851,4247784.756914683,3698128.8558913562,3803643.8514020406,3473623.5838655294,5128746.86507982,3299120.4164019087,2176458.3817162905,3057176.778609294,2237075.687327286,4039939.753465221
P04,1965730.9924547821,2272550.20649827,3293364.603210219,2460464.6304062507,2260323.0929952404,2097363.188744176,3330603.6308753546,1932448.768753691,2892284.6994008487,2930066.675592502,2329013.4480040623,2167177.6087340796,2851617.0543848854,2131401.052434776,3061435.602238826,3431238.0561147016,1991323.5515750078,2036868.6293736382,1900505.2747965963,2055009.8857378433,3519775.2738522645,2927638.1604050575,2855841.3074295986,2328210.3615022013,2434938.377656066,1477400.6487290445,2983838.1206258927,2166278.942336154,1501218.8561392701,2990822.374140705,1884634.634700186,2329814.7358343103,2458609.01250082,2712075.4703516085,3041450.102093241,1854713.4879398108,2515158.013970603,2851582.961117453,2962423.904767172,2779942.5110791046,6624819.855616265,1933426.0528176487,5522078.976364227,2764504.8211355256,2594341.9355880097,2263850.794450259,3182368.0948392865,2586522.533813266,3287083.3567116987,3035557.770308227,2869572.494583307,2066175.555972452,2822889.969453958,1492725.2319149845,238985.81254981383,1788000.9906547721,2072859.1984901591,2162189.281152392,1917864.0682625799,1671574.4265661726,1988731.6017504255,1807170.8892694737,1800150.6157548535,2210409.827676258,1830100.046480818,1781563.6962967082,1596066.6230060966,2206251.863538755,1898738.0712054977,1649402.4402525385,2003564.262802594,1935665.3465872267,2234944.5408712877,1410661.6312243668,2023149.5847085533,1725725.7987759477,2231382.548236749,1947858.7102585037,2368578.373439607,1411880.3214667402,2197940.429032309,1910008.3263361226,1828724.4294163976,1926301.8056061035,1592535.9121231686,1619292.2525235526,1999248.859599996,1559365.4854673767,2052986.7818184383,1669235.3560001,1739882.5958724422,2356729.9588938346,2460954.579240097,1968417.5384359392,1658714.8209592095,1838937.8805707549,2290136.3660263903,2008049.928609327,1819712.1882103898,2067201.5962611008,1867739.1767133102,2291758.785284065,1779180.8580547215,1953632.836139171,1998640.3206795156,1936557.1326296618,2174583.4440986165,2503696.465166143,1119064.0977235404,1098910.5702162136,13678558.348287195,13000546.924231088,12502162.221564109,8826041.0325658,10163596.925049221,9754599.437607195,9653753.47927266,6831513.907145551,9316084.270477626,6084021.114216061,7604558.757068789,7318053.472458079,7278467.550878499,7354621.898300676,6886226.104000043,6645514.97537022,6307586.618160278,7604908.9334017625,5718786.4538420215,5367945.887156618,5903718.237824075,5320773.2560279425,5749876.24237057,6161042.8055379465,7794937.430937778,5271169.921036977,7262136.200548602,6560222.543759513,5598749.332985335,5368223.429753716,5180825.684453195,7144991.151554331,4702838.319521719,4989541.719952314,4774502.920655607,5121385.50172539,5170603.804572316,4771522.143431675,7704670.054095019,4669338.101477899,4746528.082103993,5054866.265593166,4932327.57670521,7061213.294576792,4704650.943936751,4634874.476499975,6958325.3026138395,5048853.422810087,5100357.744141921,4691343.1431253245,5063218.318644969,7038103.05944786,4950847.532026673,4710757.835707694,4921353.933583346,3065557.6977210585,4155666.896238867,3890348.9911306226,3730002.7779289773,3853976.8067640346,3640940.743904618,3946733.3646698026,4492332.475378616,4168869.3961781985,3700566.050105904,5948791.475744806,3815722.187404248,3196334.087221219,3987001.8093646867,3848100.092571051,3242610.467643618,4068995.0755922017,3862804.297036961,4231563.783319817,4204455.456272958,3720542.8828662727,4547207.355968503,4628620.635004541,3996586.6451636357,4278785.14738941,2652907.8474930674,4336744.103670683,3128566.2295539575,3495130.358550518,1845530.5126332266,1381797.2127679912,1285180.9908071642,303814.4021428897,225170.01797897427,189455.58279116917,323156.7287527943,345570.2842312689,3306257.38819645,2326274.4494989445,2163023.9404530497,3798601.3541179914,3795194.2800799124,8132979.948496174,4400689.365052564,4955305.711337108,5593207.020367815,6527758.343101896,6699081.98303883,6703506.156395988,5402877.428696364,5983217.159811491,5588707.145637434,6522564.373220076,5974498.1602878235,4601181.596860542,3249200.154308562,1705738.1739859013,2159428.547243382,2160017.3764483887,3755214.536731258,3164002.906769746,1811258.8973052169,4586714.916003578,3820817.8706511683,4068929.48519824,2847256.125581366,3937310.8458867953,3985846.980695987,3334351.5037060585,3560430.2699575005,3052259.8740071864,3428780.634120688,4239338.212483294,2511626.819949345,4655866.633191584,2330428.9618168157,2310341.874561236,3120215.4280050583,2516495.137134129,2173090.860990864,2527390.831998489,1879407.5960370298,2161894.5202037366,1968596.7769353068,2410926.0359514644,2119746.3763592057,2563663.2221057517,1434263.4741561073,2702324.929747467,1391312.3078400972,2068199.1430301862,1378325.1362512668,2112995.053728737,2113230.07433188,2221773.037457325,2052409.5304705133,2784546.4060739595,1670081.0925566785,1882923.870979504,1726856.0514202146,2510388.59461981,2240370.824617416,1934010.033176527,1764322.4626103179,2859121.0774282785,2639390.0037480476,3399796.4206423266,2533032.9039496733,1845387.6142855715,1395405.4615900984
P05,54988258.56857907,52516355.02119759,168018377.0104063,51135233.49775696,38108003.12880383,31758747.13359996,29904916.915661905,27824440.796924688,24903269.774856202,24856655.570143424,19301158.561639916,19175879.84976075,17757725.517228544,14579029.832505431,13183994.11144019,10725749.583152033,8211187.424265521,8069136.798109224,6515981.502880242,5532291.263329838,4790017.848701553,3170039.0449696374,2787787.4900806025,2560447.6629373687,2582209.237792298,2487979.4397747964,3188377.450877071,2756717.9817200135,4178187.6502170935,5225021.572271945,5362639.957243074,6056410.509576533,6580501.553350851,7206323.373832492,10100920.4140258,9681608.423846245,10951306.670605352,11445335.101223797,15268286.726113755,12492314.820456281,15561393.246141769,17502125.130510654,15252658.458472421,18361827.84827843,18013388.8865576,20362311.784077402,22405542.14031759,21326074.668889154,22363105.912146863,22876350.436389457,23840085.36902941,16248839.785503116,19662250.60770507,21558891.526765957,23669054.743758015,3854934.7361900867,2785818.2881001476,5524672.998444779,3186185.277646996,1920999.3857216295,2579011.7701170323,2553500.442266573,2085005.6395340199,2680657.3631337946,2403740.6921145176,2120209.263625646,2387599.197685356,2064528.5781531753,3172053.947179325,2238701.5525836498,2413701.595804157,2064948.2623752437,3445409.847962247,2648403.1355584464,3019072.851840818,2690405.5695395004,2654242.4443670143,2837956.888565641,2086101.082934775,2797905.733879294,1763069.9235801478,2044169.809990834,2338020.1185669196,2328303.205554713,2678942.7110227,2303631.158834235,2908921.131212635,3942269.044263731,3378340.6257825354,2231092.5662828977,1559579.4342542132,2414855.4116286477,2015108.5155755854,1906136.257849972,2110462.3320066184,3399742.6060175328,2439361.718618269,3065800.4077908704,2690310.047852873,3271183.3732379405,3106652.0179125112,3849053.9182317723,3581522.581806947,3359795.1456228113,2238006.945189161,2588595.354413078,2639333.6395499,2814305.794628991,3290496.8163250512,2928240.203152334,14333543.044473136,14731314.184163101,28133078.159458805,385839362.0178148,43693775.465209976,112512187.35936782,16582380.763541225,31459336.572257776,34646643.10919097,54470400.60299389,62391578.98855619,16486719.682774402,23951876.837864757,52767252.49866775,5243299.655739493,1375391.5203134436,3538715.21608487,4956219.698458933,14335860.967550633,18481044.122933935,1594582.6083275154,1072560.4152693856,1985789.0273802006,14595994.082405321,1882672.9068114818,2442972.12404182,4116290.8837111713,3894530.762927986,3905330.1677411464,1429608.1453024442,1312969.611547877,1956244.6586656517,2742125.88280942,3270214.273420869,3602461.5641775723,3779460.0479788966,8265625.978555213,2978456.867700468,2833434.009465635,1683598.8897341485,5651345.116192412,1629482.0764673045,5898501.356707729,3128345.412053518,5846226.476307604,7943434.688245885,1662098.5297291519,4369049.549729921,5205969.798068377,3147437.5137552544,7284774.467738872,14616218.0840784,1046786.6559917544,3769508.935116613,2705354.2070745667,7907004.469070298,6431063.474370319,7791296.180333396,8810360.294937674,5506762.647276498,4426051.333307827,9478217.391164899,9603265.523820993,6212736.191122166,4763020.18943691,5631615.644435896,6501860.2018986195,9009266.296295151,6574038.134597322,4938845.275759031,8885527.672245523,5391682.310307422,8522994.977532584,8104552.0949986875,9025840.618637325,9307646.026711999,6441612.380690956,7467471.748588039,5569750.706850295,8655749.218935585,6598383.387715792,5372474.604663186,8360873.842168453,5838292.547464951,8719962.31358042,8378960.998681622,5176972.254628871,9073283.882902894,6214607.828264744,8764880.242901463,10155821.285129447,5691139.654574372,9659141.926884534,5864527.971610839,7544242.883207963,6679860.7611632515,6632550.953674609,8273511.349085262,7194175.285461556,5620090.757942698,9510717.576896662,6133918.267162795,9287447.218083387,8636480.771743514,5829311.011737125,8874717.551074956,6255914.059912728,9048218.88173396,8077431.864121898,5159508.771489884,5211810.113900211,8548551.87173057,4256687.884530452,6444335.9362323545,6856130.043701492,5774974.085304033,3908641.7375554293,5191369.491627123,5120855.091511669,6283639.1799782775,5486389.181231236,5486643.28288793,5130950.994528319,5615159.737552041,7590010.623746194,5898283.112064419,5670036.358604105,7050736.655272577,2991682.5349958492,7112093.5059636645,5707231.950387119,6914030.418005055,4683101.90337933,7196592.647720811,9089006.880582508,4543110.418605078,7029853.233809865,7234695.159999961,7128391.589600138,6510237.383964509,5870623.541646225,5589905.992282629,6931518.087165245,6563976.773060771,5759273.701990813,6778562.417708955,5726024.907969571,7239849.972393302,5972118.872821514,7387735.361201114,7474692.128685303,7180256.419440068,7613115.457039343,7207216.277496124,7326879.5831673425,7223163.794796391,5579959.73990836,7933072.477053536,6228725.095332361,7149773.988180423,6270533.78502227,6690345.928150032,7184021.324352131,6975017.143989001,5240618.895776404
P06,1319862.4878879988,1687634.7188302858,1599683.315048876,2023716.3816415376,1813301.43735574,2193412.9921333613,2067086.1203793634,2937636.318134576,2550445.2908445885,1957118.5103804516,1639129.9123402548,1783701.8744527332,2470027.2709467523,2901228.934521246,1978894.6026690463,2794232.997790271,1579679.5895284694,1364030.0509945522,1266227.8408532331,1134377.5396231785,1817545.0042917528,1812646.901337897,1833537.389426299,864146.6823336205,791530.6072002781,773663.4532554266,707482.1927581185,1935898.5103093195,1956656.8455121943,1980724.4279728038,2104305.589673562,2767161.779259697,2214480.826914419,980411.2204534647,1122409.207815602,1869944.4994552734,2777514.8399285013,1856968.0092981895,2162376.011206342,2030452.6454905742,1631116.3238826413,1955212.0930990798,2525765.927197841,2577118.3393611247,2328660.419408659,1840317.4267721933,1925231.5319660418,2861717.0844506416,3155280.4787102216,2554228.9100907454,2475733.024022354,2219974.1737532727,2038346.5378822454,2498910.5725445915,1833674.6356375907,1108070.861305078,508646.3628773178,490588.1888429867,760989.8384425591,826393.2113034183,596973.1651408896,1084963.6064993376,777083.3566534892,1251132.8240461606,927024.021736708,916813.6906081908,600834.7268236056,599407.8447077456,571960.523360818,1303661.7944610915,723023.6410237041,922360.3514706781,1072496.850563842,1448203.388710125,810075.9010898024,1044806.6503397345,801001.480562859,1001518.0904831826,1008496.8141014505,897047.7622810868,1164854.1324762625,693247.7151675324,1124272.2357824019,778872.8777428528,636830.7443434588,971150.4365920264,739119.3129838147,903942.6410258522,871496.0370811346,1303441.3902476574,834571.5091848469,1213630.7013662667,1105095.381139941,1307707.3969217537,1483152.7947261832,546638.2714046332,1424931.3080616945,614724.6045453108,1104383.4855425716,1353537.2585714837,1513161.9541557725,1670865.6451736996,1703789.6130719166,922465.0295017945,1092699.5534038087,1560979.7903294903,1096083.38441357,1126675.6161348156,1009206.8528177696,553350.1280366052,1160992.2506416412,1135394.8950637812,1242978.2115847736,1351583.7964228778,1813112.466238454,1202691.2388259927,1320575.7164814826,1165952.3641090645,1074325.0983918486,1550151.9327433724,1034459.8646482732,864183.0574109959,750328.4132796008,918845.2465378934,877577.613567791,905902.1627768822,1075924.7461176475,747506.402295934,1034347.066400652,1287752.4218050947,756518.2418568244,456319.4374192931,944397.4781599502,858138.2227211703,1047543.2913626411,840898.3103890069,660226.9624378984,907325.5465055598,651317.2979023199,914716.0029367594,749173.7243135506,1033121.0999786145,792028.5365479798,586601.0699860855,750720.3024953532,962393.4204848523,738822.8115729839,613353.1319928269,812498.9562320274,752417.1192348552,563781.3115912237,567547.2468103252,772222.9908778418,619534.1825869041,488771.89723340387,579723.3222787209,995495.6664267217,551308.2166480051,761400.3604991946,833641.3747651111,558200.8834341525,861092.1421107275,769248.4711684205,711220.8044673463,789141.6278626551,3007891.401027755,1359857.4180788468,1904562.1873509276,3303502.708068921,1898733.0360891703,2208623.0773561103,2361426.44764062,1930657.7516817888,1984618.3948492706,1703375.7847192418,2038658.2435981017,2450086.6444563903,2527610.188442052,2867287.762526964,2146095.017860664,1950064.7489765459,2288101.329172337,2626706.749452362,2661329.728585867,1894850.8391609276,3360580.8449657476,2593424.8575450634,2537216.852779992,5491096.91604131,2700608.8573261024,2475363.137973905,2311535.680269159,2174052.579851284,2786794.437080078,2723448.529169468,1951647.1143204072,2601403.531982177,3288652.4037363036,2396109.888916661,2432889.4345674384,1969243.2101994767,1768969.9273690002,2470179.773851563,2274075.4392794105,1932229.2726074788,3054859.00105539,2829411.33570233,1912087.480122714,3110948.74752762,2738247.96427482,2177491.471167798,2287744.522784452,3611909.660187334,2351559.505624688,1939569.1799633177,2945239.03527893,3016021.61209302,2335718.1798009076,3098642.8766559083,2187232.3955728956,2190394.5242987704,1701393.0141189494,2935011.608038675,2781485.17758672,2429791.6680163983,2241303.252488982,1985823.9006540934,2551534.5524031017,2358949.2693635835,1614100.4247490251,2243440.8601925215,4542684.2149260305,2182644.781757656,4182402.566468062,1671351.8918873328,2209798.9370945105,1686067.3540584194,2239285.253537229,989080.8001648539,1573436.2490155257,1820430.131768296,1700904.0548455375,1701289.808786597,1938399.93863794,1839266.8861313802,2239784.3761783955,1866687.634870175,919830.4761900438,2310143.799487954,1559035.5601976418,1618684.1909204586,3260083.584444481,4322915.369141929,1982592.2931438442,2927272.162747021,2241374.98397858,1775423.3166364806,1520683.4807769652,1755062.70905592,2322439.5302756866,2441786.9216887313,2598128.901876812,3147520.270112279,2417633.9285207554,2559433.543941481,5674563.463709259,2241444.241567093,7259506.111900694,5171670.661318408,1884360.4798923386,3129535.509820285,2285706.604563251,3914141.91236128,3856222.002970556,2383018.1382527575
P07,1569982.4560830607,1577819.0587465302,1737812.3248459843,1766107.751873589,1798351.14085171,1685930.6142692324,1900798.7260329118,1689156.9421835174,1940588.5901970572,1995651.0856243423,2238382.5182996355,2971921.344916942,2207225.800560067,4079583.81463079,3458527.624065572,4159817.0195651646,3378127.800437839,5420538.003169144,5706140.831947556,5113139.640150074,4108366.320766981,4055882.404456529,2426530.746233519,3447598.6101192953,2933977.348577477,1313556.3801388028,1739068.3448005053,1952169.78849991,1738849.7974681214,1432365.75336467,1647259.9138515464,1824605.3026154684,1805891.381806998,1688093.9156184006,1740909.858559275,1806019.3552549263,1833527.348298363,1878635.3139693937,1975408.6082758605,1780628.4278046016,2499357.562813702,2154978.7500919206,2564801.8918346534,3177358.829322997,3837367.2502494557,4257525.390272595,4001526.8917501047,4398480.805865887,3517903.229243625,5509988.183542435,4378550.750209341,3714556.764035863,4511330.15555209,3819976.2495018076,4661337.720741611,8010385.820940124,10861530.540666891,10976189.377279459,6650569.463798355,4818625.278313145,6977208.537212616,6393509.510365555,4494030.974370857,4412525.596363108,4131986.8081814926,11668444.9358718,4528128.93930548,9459459.138048973,4736308.734333636,5412130.889810588,3953084.5789119704,5602080.676545473,4665536.571187882,3602453.2867955873,4118872.769124043,3382160.9868255225,2864625.83913779,4237152.471396043,4081540.618001098,3377995.9618832734,3656042.9262934243,3366083.278297766,2605937.907446052,4458498.496063142,3386532.2827298264,3836686.39192406,2642474.8769087233,4476537.961584322,1446280.7775632937,1515130.515832417,1726264.6551790228,3774031.0458520455,1970631.9534920102,1562639.6964647938,1544723.3147988082,1861892.8594884898,2012994.610754919,11190992.98134471,6106116.723927,1866861.2037703488,12648718.380408093,942779.3780425236,561792.6967634256,1524651.5948346786,2786389.4274571557,7517415.329381973,8626979.716787688,6357884.985474621,6056723.786947196,4164286.270310575,9846218.04176014,13965651.245525666,10711260.602259636,7310831.706976208,14454143.621041104,7580368.8125500055,9622704.716755528,10791484.109501753,11424684.878408838,27668312.427908704,10652877.759034922,17782228.238516826,20196609.027856473,8558104.616666729,8888441.054582939,6989741.291008133,11390577.128467802,9212697.906775247,8345759.505649136,8463093.79934505,10025820.082347844,7461878.298979841,8664276.342691043,5773292.141075764,9020215.066524453,5544187.066178525,8125008.06127945,6690861.634659888,8951632.63763335,4752264.715286087,4483734.53984267,9234616.850843947,5815770.227652861,5263677.20226631,7974583.908609928,5329054.724316061,5487114.331117481,6405685.417026583,9954087.544979671,5657153.556536374,6484663.754553296,8228507.368753044,6832966.389771942,8969511.5848102,8849649.540478114,8380134.704670841,8811533.535251396,7921889.186822252,9542250.228645215,9891596.302953323,9702303.345688112,10340980.988163292,10513936.80908054,8751405.212197587,6031267.25164008,4686207.376859872,5696027.838640111,4685721.141788125,5585867.485552374,7822511.759455974,7456238.962872211,5366070.1287858775,5557299.568506829,5954553.843319137,7773038.394496638,6355206.105676359,6928388.730352577,7540813.287938588,5980089.351369854,7924664.764137777,9150927.466390178,4333584.2101872,4996250.188795034,4565346.831123928,5204616.0270057805,6826100.627387719,5476759.157446103,4364422.749321484,6375282.878219647,6258868.5381128825,8943733.378331557,5523686.7268437,8713958.190571051,9197306.766918685,4901512.187464145,11818306.063579876,8359912.82182128,6637796.043084275,3911069.303929046,4412661.253456761,5348228.3017672,4798929.271162139,3987378.860994869,3560841.9038143884,3340988.4040456046,5034547.586270301,4881214.253984738,9961552.922777634,7032933.217377806,6746820.113030038,7143860.217859646,10621877.100796783,8733024.610269047,8152364.738890598,7624567.220837392,7651907.09920493,7648509.978980631,7363194.8678089585,13720350.634557668,8527906.008802466,2250897.5822471557,2462023.671228581,2725251.3976828074,2306991.479052266,2697996.161658062,2353089.6803870564,2385437.2293323018,1868396.9724596427,2461947.3761190977,1483025.449940178,1833501.4159940411,2412220.2820434673,2752003.494615211,3016671.648521359,2408168.9983417243,1806415.086293541,2147012.3170994725,2327221.808091181,1958202.1721910946,1850451.4453283958,3103116.4407206243,2770161.2824596125,2295005.2245589416,2069189.5416803705,2505678.8399422616,2426413.2097377013,3270483.125348977,1929573.5892699845,1826361.0913359101,2457374.2797375238,2086247.590267543,2639389.829119736,2309258.52126061,1726164.732858935,2036896.3545286295,1823061.9375946054,1561321.0140510073,1759771.9864160828,1709347.246413337,1819454.460105752,1684167.5842947892,1828260.9076670909,2537511.1131274863,2541751.880189564,1786843.263156094,2114076.1193984766,2160273.614391431,2375567.1381858108,1555331.4725056835,1906049.479220829,2102744.4474905445,2287130.8788963193,1324567.1725235577,2048930.690017173,1537520.5663401056
P08,9591766.814111754,7270727.50602964,6929929.621472354,9341734.765450807,10632827.099245213,10783673.380933173,11264116.21784251,11581400.417660862,10993485.741123926,9423664.531003159,17432687.669015832,10021430.398082294,12723451.393073786,14207087.34359248,15622410.695066726,10667883.756149516,8404261.550159577,9982785.315637968,9455690.007131763,10568492.445832439,10732174.170389932,11569300.462673638,9278634.443156213,9736930.17828637,10953523.600309113,8981453.920283074,8310254.409060733,9538619.79917523,10819052.518120177,11493899.194025729,9192291.261350717,10316794.821436994,10124236.20996165,10748302.398888333,9800913.40968421,10366997.789304527,8570354.146624068,8316161.950971717,10107677.15595488,7290201.706119773,4943537.020436676,11242743.324863337,9898222.94096907,9503556.995354347,4642203.4346606545,7835372.337160541,9235516.314711165,4658205.22644027,8213667.71092651,2001411.2121353364,8506857.086267592,2511606.091568719,6161121.714251165,5620814.208113372,5581986.633262134,2153120.431268599,3098004.1619631266,2728245.2953139096,2374081.505284873,1949290.2607712364,4747959.8479916435,2922573.4795044484,1904929.1803903421,3168616.144379289,3381593.8289940264,2993524.7239840915,3802408.8101287265,3528911.151903121,3464758.362235338,3611594.4211586327,3858102.4064543927,2082383.5954303476,3517426.7326107416,4418755.944529643,2915168.971315082,3970739.291694412,3746399.9980581338,3140559.6496290145,4309248.305504362,3348003.9509539157,2807083.1734683905,2989863.292167794,3680553.971531243,2308838.208376619,2884311.0717219496,2607063.5207981654,2801970.6269474803,2449958.93295093,3999153.7162747113,3795437.0367172738,2632321.6725219833,2965068.5690581836,3405607.8704141974,2788103.0900078155,4222736.653945402,2633983.5519572115,2761590.4201329593,4205268.659575023,3332979.0881606904,4573953.236133004,3582635.592815882,3010418.9828565586,4013572.5955417547,4060043.65742724,2261961.6828346,3624079.3442595126,3786535.4632934816,5190098.616624201,2943827.741650382,3914615.085235294,14037127.737041943,6224586.252995014,15733956.380373972,17047377.31879404,16321261.493504332,14164906.567537393,13176688.9784022,15116092.668935241,11286352.170506807,11373633.921279501,10827728.151613047,13133763.1040867,12636386.978877176,13804925.262313118,12088359.027008068,16340739.354968073,11490297.22897059,11387934.152250476,11554961.411828924,13000593.64312547,17092267.83147011,12185375.077951897,6744697.959932105,11550024.512285098,16959338.02458323,23832768.943360582,13984562.630208328,14970502.012565102,12110995.11134444,11691779.510172127,8270225.467095664,11375823.230605261,12413032.967281543,10511673.87645847,8062198.0527325,12917701.774530414,9965977.340614427,9585176.027288444,11461410.947049558,7702581.383065429,12598374.964810215,12074715.887449237,12178509.239895407,11127349.681418877,8606091.586181497,8806428.04953523,10285542.966193084,6366270.805821007,9972433.651995659,11659522.377945857,12361434.986965077,12294804.180804357,10766725.487885166,12209143.295097359,8650304.121899318,8081900.969343714,11856122.61617729,10769956.35613556,6839569.575205398,11413040.773167085,9770974.357700918,7138898.77139611,9669042.059921622,15791372.80141573,12462932.605771251,15433850.757603688,15078118.170850627,12887194.441273484,15475601.400842708,11268149.113183009,11577807.859250793,10308948.99257771,11200704.603119064,11278528.25750067,7104824.445313979,7725755.421558596,11953458.044840813,6451899.903354289,11748244.253481401,5866115.820283695,11617928.777947757,11202561.041777559,12056492.014430657,12557022.089940112,12362221.02974369,7824212.994291768,11777844.02011744,11461069.95616579,12131624.145924214,12205700.113745317,11564175.273062946,6836627.355912739,11778156.924947705,12021042.42054073,11536643.57131569,7389941.90634126,8681495.35783521,12830366.680629365,16832956.645512138,12325221.015849099,16989107.029337306,13119367.619192513,12168475.132017404,12620533.254443247,17640757.360893317,16562994.157012355,16821905.374284677,22670046.964363582,21281952.677951068,16148298.239241939,876688.5109804159,1338967.942834654,252369.10518048916,951394.7822306078,403743.2533297589,822824.2509992335,159119.53080352908,401122.3792357763,915193.5589814022,837404.63817104,999847.5378417954,998597.9558510408,956503.7372292352,208765.87674772163,893591.280072618,954626.040484233,178031.80609058036,1063665.5708565465,508041.3107021328,175086.43766736414,1053418.0147928693,1300643.1054306384,946709.6617869289,1475507.4915574926,3163651.735055392,3359374.023627642,1597825.4968267158,2947881.4585066047,3742225.6828896897,3348792.1940492624,1531808.5557499928,4122669.57280775,3166152.278600566,4651539.331979999,1697989.5839916458,4026128.8019195665,4625761.422369488,7159147.436407777,1408251.3646955187,3881269.06399091,9038319.872139014,2851202.841849924,3392495.1759947496,3855715.662359163,3597441.809320681,4273863.242596637,3623046.109284412,3388220.2108882517,2943944.1430621725,4637535.532568532,3632825.1375871734,1795497.0099005345,2997736.1534897643,2779604.611116458,3769056.3974881256
P09,1415520.2448959507,1229134.7035008303,1416271.973211272,938084.3270688395,1260055.5100328652,1463265.3716615238,1759568.7656285432,1552879.574587271,1082332.149929652,1495637.6014081887,1426365.879644223,1194296.7743781663,1231925.2289998555,1859851.5651199254,1423763.1261480756,653591.5173342845,897644.152892,902474.0576691024,1369147.877111426,1368424.2348496073,1267567.6998603134,1507866.9268698369,905458.3682058797,379827.6789937433,1414151.2346026653,987124.1132134207,1303380.3052641433,1448446.1569893742,1292266.1620234426,1144271.618878785,1239527.9286813783,1039725.0595975869,1318531.3137289654,1341660.5251344596,1050371.6704587499,1373085.5476334258,1046015.9455789261,1204384.4174756631,1048829.4114171956,783250.5417595988,921428.1797206367,1171148.0453483418,907986.8522809623,1593706.7774918475,894552.4226596092,1422312.750703317,1322795.8884509038,1238607.0437412316,1378746.5842192858,916009.8764883638,1199812.037070168,1388609.626202918,1331888.0919609456,1299477.8107051102,1271245.3895724511,819229.2710765707,851375.5958179757,801940.2183374292,984439.3251572708,867856.1194728678,1133734.0401146496,997134.8150766799,1129754.610142323,1056987.0449483788,1421667.7959588552,1025588.8802837878,987690.5317850625,1090663.6666919705,973544.6140324014,1065824.716051891,968283.1503080191,645033.3097393021,1230570.2937485122,916191.8508312854,1402723.6102582705,1085445.1207857176,1026924.472539113,1043510.0001979705,887999.0470416601,1176965.182182238,1108543.4520847185,964411.8443654974,1290100.3343846947,780198.1261811678,1000105.1029600088,1321320.2966779019,1063490.8959770638,1114276.813896437,978558.3791381941,1097624.147472585,878409.6301599953,890315.2238360383,1031201.003479475,901225.4827016136,890848.4863121877,723426.3106272464,922756.3910193107,748417.95626328,841861.7347859406,901604.5483783262,898129.1830283937,905277.0865552621,839742.7133557347,835150.7978630781,886139.5582086488,745672.2171053217,947151.7217166994,1247502.458606556,1062080.9935540673,543954.205145506,4592347.808326499,4530147.304976688,6199996.916064012,5813074.467117779,8803797.640735418,7523236.866849329,6747852.742626991,5748423.003021495,4109984.6653640447,4448517.248175162,6883979.7668885505,9770933.95453048,5098104.60816815,4869319.824878771,4335158.75800363,5687933.711605034,11450256.388996534,4969886.244032507,4999954.887686085,5504419.036374316,5851549.019194556,3735471.9387466284,5474185.939418447,4828157.347257171,4602508.772031233,4886420.005456669,6043241.742006123,4655369.757434698,16272856.399780415,7496010.223300192,4753373.9368606545,6532577.211369684,5442966.629070938,3457442.0297016106,6194486.077289246,4839192.15685576,6597281.389932396,5482486.122040661,3793431.7332437984,3332333.8656528173,3889835.5664307084,4431955.778476745,5638130.776453531,2706609.755532646,3773364.798095416,6003275.148169359,2632814.1418244652,2430465.9719591523,5292119.88170748,2867806.4027924608,3355745.4859643686,6459691.795348961,8918795.541499374,11721714.28958272,14225302.194148278,43998235.17135395,8842134.562418617,5810335.002937161,3550975.8873285097,4151338.663676286,3660830.1286273147,3802755.377476589,4327683.106239984,3158476.0080112256,3696591.829878216,16825346.96651908,17298946.91153212,65517116.13869514,44808915.85103458,22855357.72088725,3971255.184474468,7158688.513204017,6803686.763399227,5952713.453002507,6637564.654750019,4438509.660516799,4225030.95563324,3159246.3400627114,3076983.5641404465,3855516.964444902,2977326.0562456027,3000703.437766129,2426717.738229937,2202733.73171523,2497884.898975397,3502305.39931706,3214141.262161866,3193472.365759419,1912903.8849438317,3712031.114760378,3098186.927954395,4864508.826526907,4524775.179291034,3759069.532389445,3690572.2406213526,3394154.50003568,2627787.233027728,2132903.304130066,3246963.3227981823,1956558.5705191821,2509331.5752686244,1941371.6351896517,2668238.7172982367,2988064.8533926345,2858102.301677406,2371598.6690505296,3193897.486742932,3091345.5145778,2966199.805441941,2046577.882023895,1252092.8315491239,1125843.9837248975,948597.8944400843,1104898.8136910857,1059812.2632720415,784186.1478664418,978116.3366712546,941576.8583818353,834025.1263015275,679868.2643597198,1104805.5796353447,1176825.4620698607,885018.3280271648,799408.3872197014,665866.4731738403,728814.2867426802,901664.4400683756,775171.6597761537,812152.1036579224,1022946.0263062768,787000.8069981762,960456.1871273684,953751.0362225747,827894.3453775122,575013.4686451287,910657.5594742266,806202.6916986806,786253.9624546452,915631.1367845,872567.2653559684,662297.6234675865,661393.3689636792,517932.5027696488,872354.1722478603,711848.8610121566,945197.9510580758,787175.1035163163,820483.7193762844,657044.9668310694,983182.7289293202,879207.7688596846,706645.0653773184,872038.6247091414,771849.7053982543,848064.0492874675,718154.6951769972,754523.9166832259,772475.9981971141,869881.9999824326,603802.7387179357,285631.03125079005,3001802.961648439,2045371.6544220499,1186634.7418171926,2314518.7916915277
P10,347115.11612995213,431932.24440124026,532502.6043338825,368317.46127874765,239946.30319110717,287896.5076252704,306963.74807633087,441551.26078177756,547345.7663685419,601988.0362259914,645132.8653399351,623272.5323536639,555435.1144088155,445931.39287866565,724949.3256288255,594435.8332313359,559854.7707136377,632741.1355481897,582619.8297002583,712984.6726576869,773195.4260956715,719088.9857505569,723454.5480252859,588651.2936823335,856891.9004589051,607480.2654436491,648083.7578387521,649218.6032076229,665678.9398296557,603147.3295585328,538136.4920381801,654098.649594025,558156.2542585661,592178.1219957928,656256.4152257051,674903.3253299433,820169.5921478358,644383.9077938299,586607.8746693071,751298.3280287947,532206.9062132866,622047.8407183036,536771.7543175934,684818.3134154319,532776.4448107681,562147.3144764677,563310.6999324521,532444.7383322516,588539.7120119522,715608.3408046602,511015.3763779433,686451.163804273,610301.0307453575,606234.053779315,662154.0149647966,4647574.285559632,3862526.9116053437,3292452.7349119117,2594760.641891531,2320255.2444243673,2091092.070687748,1479905.6394752283,1381510.1878535545,1209447.5674680704,977124.011288696,660773.2754698931,886478.7038532535,1396049.3918484633,1206799.4921040325,1197778.9793369828,1128813.6487672473,807465.0157352625,810197.9895636183,732978.1416752394,752240.6747884782,526893.1995189176,588508.4593650601,555087.3712303198,543289.3835200899,564570.7596219225,499113.1821330394,385723.3112538535,521941.0782072372,554706.6524055875,614461.655054146,616644.2993993328,509522.2111758174,669909.1476998056,429992.68848720775,591857.5568035776,430575.0156980666,487865.73928089667,426645.6225580523,487559.51107309107,505159.664149941,447719.67410701443,510497.41716286284,552294.4416815336,495794.86002402805,508650.8042573848,463885.2439594482,616248.6032863803,566704.1471412568,455316.9195642612,517541.8010264176,441175.4373707231,452135.4827680304,424346.92605769855,455977.6898128403,528101.5284814499,1436272.2294492149,1180813.6816672212,1202161.986980074,1241162.8571471316,1220302.5506519754,980679.8744694858,1093654.135787215,1061298.0358756287,982631.9395915965,917510.4517518594,938258.7807524606,770427.4276488856,789007.5191400343,949477.3284399223,865740.3461292638,693166.7516611766,856571.3992970712,831337.7479254173,869565.3115387422,935775.2460048697,851755.3483660487,962288.2360316314,940457.042689678,856013.7703504632,901579.634739157,932832.8346210689,787420.0546494647,756792.5421882648,859101.9614490655,796352.2054906762,810919.4838972003,827210.8035970569,823061.9259527179,791111.4119374834,636034.6662578501,688384.9220583494,685479.5900861156,652389.3876768257,675392.9889375468,690796.3469549995,722553.3145911752,737085.836142681,468217.842229828,663145.5778037265,570206.3819674521,563273.1315616117,602969.2494269675,744937.7595300507,703183.3035728855,557198.9884200998,678258.0516210488,605449.6175811687,674035.6670992734,736333.8808105541,565417.9048468838,1912376.1407223395,1916990.1525173993,1756656.9956925428,1531564.6873123783,1438706.7111039842,1374377.197584525,1275099.308356048,1183771.594224178,1219952.1007346446,1087792.2475379142,1069207.574964049,1103325.354391133,1092405.0543976217,1056624.3594073253,871329.779286287,821910.4501476074,754879.9023180448,839923.2732093296,1015894.5117866516,990526.9379625763,1092914.2530923868,1152200.925892116,1162815.5855931388,1349918.4360632983,1331423.0684081558,1510216.3470738633,1402161.7087389636,1375558.6396079634,1351810.26605968,1352647.4516499173,1182748.8078430744,1104530.6855676437,1078764.8893410368,1226983.1313532803,1264724.9081075264,1345089.0377083006,1378428.6791983554,1506398.7975466982,1449803.618530297,1255532.1768992485,1321117.314549055,1068751.9638772723,1175486.5809813275,1139347.8804887375,1045465.6743051945,1020617.3810504265,964322.993480386,851342.5153947518,828012.9412850895,672899.6808254314,680221.0310126552,685615.2937473187,649080.710871577,611538.2723354021,568392.1800766687,621315.1992774766,614353.787145865,726365.1013840465,620373.6558080281,519575.88324569934,576986.9373773386,617606.3267697712,598544.9072624418,414970.5382537608,478433.12698146014,410120.0855452876,532652.6100538329,288310.62702513183,381899.4401817965,258589.95938779952,345010.2803396188,330036.7408072703,299649.45869385276,347381.36609621247,326043.229972058,421951.334127997,394118.1307792476,518159.7931595169,513269.071162312,384074.17968539655,358394.27148354193,383494.3321965671,469636.90099731344,482762.64015166264,429190.49258973787,384740.67774260713,405964.315903571,428348.6560654592,501019.378218549,587745.3045371945,419908.1712364947,424351.45475192135,505808.2337004597,403319.49444707873,419810.51326351805,298476.3231571188,336360.8934820327,357532.89987210167,279407.0220919775,298547.1407585513,169177.84216556477,167017.01471748206,241776.99581548074,264112.5739317336,314185.05952459224,347883.2012971578,420692.33967122936,477105.1077739292,410771.0998921735,465174.23956020584
P11,7810223.776344349,7193875.8910416905,11036547.802238956,23976081.259070598,21657654.483670097,25399686.24764033,14409857.537699241,14388845.129944392,10470507.027308125,6176838.873524219,7584158.718415393,7125930.902056691,4398939.723248703,4677119.66711839,5775386.906633442,4561835.3293553125,3775503.7446160135,5336599.42993519,3324691.909526772,4531915.934699001,3202508.6241792613,2839495.788922662,2754591.1020157705,3136778.143385433,2556689.5976341916,2444153.0130756036,1975678.3100617535,2592507.2556171804,2221230.7001298987,1861674.3587236556,1968787.034481158,1795389.4330394405,1632498.55353914,1422242.9983345876,1633978.7729624081,2076081.5623417632,1820818.609911022,1911846.6036501778,1545162.3129121764,1956277.1104269526,1727809.1494629695,1773442.990832555,1666647.8999440777,1757522.1625592955,1792552.4971560473,2269415.709792287,1819458.6861109007,1511017.4311710803,2028385.057919176,2066243.0207102953,1954582.7035581549,1681738.2367123908,1764438.6719309653,1447966.8837663303,2287151.5083209025,4241987.242482105,4027091.4113843776,3088894.7226386964,3406073.510987023,3636203.1651160344,3500103.458543405,3196686.335810163,1975459.8092969193,2044610.5369244905,1345182.591915947,1801140.5196248202,1556921.236269027,2006002.0449324585,1765780.8593155378,1323685.6255211458,1136744.3702699048,990885.4615288621,1000505.525679271,683024.903935656,766419.2654983022,670886.6995271747,771003.7767505327,635822.7780850946,762056.4448880705,742926.9843694681,586869.0836982965,741600.4320397574,627118.6277888862,579637.7311220989,560349.3821234127,603534.1021647456,759518.9267083171,691716.5857703923,632237.8276484804,514947.9244694599,523034.8917437475,876680.0589701184,584805.9898954588,579679.7059473438,503962.9130444899,1258251.5937496547,832994.5340348806,837004.925606913,1761829.8995789997,6757654.944106746,6425920.216550283,4752584.191961826,4036472.5257946253,3566432.0529474905,2104132.387492844,2169857.507197495,1570229.1011108346,1260331.5042589316,1049066.1608406268,984754.0926895299,8908204.177215163,8575627.682985747,10049135.779327653,9477857.394899849,8779841.698154626,9932229.674252598,7166642.832812561,7394559.055624992,8670697.79244027,7548814.780475128,8087987.965128986,8778403.284749234,7208084.826331184,6134094.461308592,8678061.327006714,7658076.298357571,10797802.6158611,7751755.085841488,9460011.667848872,8051113.08406178,8670177.615445627,7342253.999452564,8464781.785712913,6724818.488276582,6519904.498803095,7908757.789710596,8133025.800069944,5434254.958115429,6621510.014622269,4804302.03133066,5579789.966263499,5667834.109320432,5233142.027435517,5668451.676524639,5673990.647920458,6925323.252576413,7446644.347887795,6713198.627265466,6073270.162938519,7655183.702610221,6364710.932603722,7583444.721457336,6521807.9939707145,7470666.131163128,6329415.622827388,7176040.3797469605,7515851.09045689,5951258.193785958,6625162.412333896,4934073.196236953,8069836.440620039,6254170.716369983,7376720.610574622,6551107.679315526,7334365.276058927,4319239.542131785,3690065.090898781,4165062.411663905,6014242.510492936,3853938.5398799465,6016412.441897014,6539661.526907235,4069689.7062704647,5581392.61177532,4648635.047777637,5943237.160341313,4894549.430694532,6243808.84279237,4220252.932927612,6215649.346442774,6102291.653740535,5594389.387921306,6333346.453740504,5363383.943703232,4319229.914290853,6583832.233323403,6367973.338727253,5430486.653772229,7048944.19460663,4698600.3174079135,7319661.269505102,5838884.432665416,5753987.021938188,4346219.814237504,5936729.223010128,5781002.068361757,6127405.766211726,5776038.008294484,3912825.8551931167,5482998.306879561,3745113.2551625995,5568779.226267237,6086602.66783514,3176457.386334912,1719334.9322650833,1937857.1530978463,1959513.0545402814,2195391.018664513,1980376.3646424029,1863200.0571802948,2486068.540366752,2241616.5706062517,2137205.08050339,2017670.4584352341,2457593.153042757,4673003.532282539,5256819.955922767,4587886.689439479,8966150.245927017,7108579.536114908,6160920.711243186,5201725.369632693,6394410.726336835,5325437.228983045,6141989.936996958,6813099.142098254,8618886.340654353,5895522.372334466,4399003.45094067,3297784.7193695963,3584428.757816022,3548978.314068309,2903030.5282479078,3125372.3534009736,2649067.043295697,1969832.5632894188,1576307.4877203265,1897917.1027644952,2877819.328256225,2959212.536678276,2113842.9964229893,2980951.328359442,2960378.419319121,3014297.873488762,2467920.921711049,2419113.0419647144,3024937.6854876466,2514998.4793657647,3216674.955981587,2248827.6313726027,2844647.388155063,2561621.561017731,2610334.664158236,2435100.188249903,2736018.1237178613,2726684.5082084592,1929541.7952753254,2166717.928807635,1907434.3806905004,1963689.4885322433,1822050.385634903,2144376.3434774517,1977474.3564290395,2146630.7600588426,2136761.355783712,1951899.4871568126,2117666.96645109,2222153.3255322212,2290289.509235012,2165444.3296030457,1584480.34884031,1767289.263748352,2109397.844384625,1893211.3470752896,2139977.526151187
P12,1590062.9773141118,2317621.5351494574,2710063.059505838,1289833.9388948411,1687239.4243624508,2030738.0638245412,2230267.2961644772,2184912.4759116983,1809358.615298538,1815472.4630972398,1743458.2793666366,1683711.6879817694,1914854.576323222,1430088.8912242516,1683477.237831112,1272406.1381409254,1368568.2275346834,1525252.746977564,1230335.8668816295,1213209.08459088,1617100.5100433137,1590665.1423012065,1353566.9919520624,1808039.147057348,1960304.825127529,1867734.3162252947,1800347.613953545,1488659.8848131865,1570740.2556426935,982758.3995941547,1483620.670541401,1955714.533678173,1532324.6988306292,1528006.909041101,2026426.2696070562,1793372.877681733,1750941.6904482779,1349872.1071721427,1699469.8790871822,1713416.1210070357,1463531.6565534468,1746699.7591974535,1418122.2416694132,1618847.8118277958,1601160.0884734553,1628149.7963289628,2410227.5343456203,3179684.9366473807,3031564.4049966075,1204819.329286532,959436.6197281482,1359979.5414783251,4999467.179915575,3194586.465284832,2768789.9321469474,6378647.901760213,6637992.168141406,6540892.330533512,6481869.131109884,7103026.71087301,6241280.463494276,5989927.735835842,5886651.120206569,6739260.796842143,7058737.979001749,7013275.581887876,5906205.53872226,6267205.532383253,6187506.899637367,5162259.7494972,6020197.76085874,5462772.0292174835,2638262.8129201834,5928362.646703717,4792087.875248375,3919236.460524173,4787818.370187096,4193146.107684234,5916926.098852582,4978958.149911759,7519052.848167686,6190226.12439663,3886135.751311449,4515794.999843096,3701932.4293326233,3957958.0650947876,3982337.009835573,5048006.306689844,3496384.3761003953,2858416.0854701744,3846659.79317989,2685745.618856515,3614462.371030225,4305166.880955979,4726793.57523115,5348652.782446903,3864169.5877472027,5836281.003939796,4822991.45760791,5733675.036700614,4176014.261172439,5592788.94854716,5352134.719642308,3720568.035164135,4300900.821893389,3411044.375737518,4142578.3238102403,3376053.1404198073,2548369.385144599,4188178.0020610685,9796255.81066249,9708311.211564302,9438359.643154964,9298640.316604856,7827945.057439297,9397360.530319175,9459332.305506017,9776897.429889776,9823679.580471082,9098399.246876987,9261811.298753308,10097851.088605832,9425658.59423429,8599725.470323376,9497650.547780784,8859254.487637654,9202543.410138998,9494453.068463631,9909792.881566748,7109072.255717971,9461828.768569633,8838825.472326364,9145538.570565633,9943056.577203944,9184964.509327712,9446759.864516139,9913432.187975924,8687345.383001188,9657567.146230355,9219541.96868124,9008408.842178844,9490292.68863448,8985392.242750771,9170241.468287887,7053854.1257181475,9107690.404422814,9342332.564730104,9182802.215001807,9085778.66086151,9976126.144367706,7899309.018471363,9366540.08849895,9014318.351568807,9186897.336230792,9097294.856685717,9633375.339009581,6769610.370882072,9694390.18597269,9164523.75899386,10147848.996267607,9493011.884289023,9503614.069707628,9457267.901990838,9232100.194926525,9388964.500037486,2563041.5278524393,3087448.2937937872,3806505.6310732784,2726090.934934312,3365079.4740141695,3216682.4184314506,3157908.524206881,3943017.2741918704,4380925.788386728,4159176.727396631,3169987.7740972536,3901208.078079858,3692725.908308646,4181374.937061774,3615590.2836551126,3528317.2642980125,2768355.8527310323,2939439.268141127,2946183.460115526,2513869.128967776,3516740.536479945,3924305.5071325805,2882073.5824449277,2899094.3187827845,3158354.3677500766,2279731.429107055,3058721.284535128,3771842.8774312576,2377134.986096007,2635249.7876679804,2276169.587817054,3446843.016697337,2454091.8262837837,2973527.971954274,2005817.0145940783,3180119.4002455827,2250770.8835859047,3047391.22502861,2772734.820639174,3086911.1429272257,3048151.0502766613,2285434.976044983,3099195.592726007,3482652.868794782,3070329.561868218,2696751.6962768473,3324325.1667879377,2807614.6256310395,3909147.5775656616,2784782.090264688,2994315.953223571,2694542.0543946354,4374316.176631392,3463643.1450887285,3428412.9251051946,3898194.2611793084,4927703.733336188,3845884.845120026,5048836.1869957,3840115.5156969936,5469036.057364446,3790958.751867192,4339101.649912158,5199258.209199817,3960892.5599951143,5209139.7152169645,4508202.667262359,4884426.844471818,4960749.463735373,5285228.740008591,3703891.834664779,3436109.988105542,3879566.810489963,3761351.528602235,3851282.3210156295,3956533.7092685066,3830890.67034215,5448321.094013312,4071940.496403911,6480364.038794052,3716612.273149019,4287872.438022943,4558158.576815115,6696304.8515313305,4985445.585879123,5817883.567841986,4799803.536163943,4304150.800302054,6474692.472120984,3716928.7811434534,4981880.892326692,5402113.796551114,3497461.76875464,4362623.9612897,5330462.897918768,3883784.5382567532,3974387.859225063,4317544.349435584,5021558.412276827,4447625.7298961375,4380647.267871082,4407011.818011757,6277467.262444915,3543433.81859689,3678208.8355418025,3748955.543700622,5073669.16534751,3998833.413024964,4170344.790039113,4466743.42628746
