,F01S01,F01S02,F01S03,F01S04,F01S05,F01S06,F01S07,F01S08,F01S09,F01S10,F01S11,F01S12,F01S13,F01S14,F01S15,F01S16,F01S17,F01S18,F01S19,F01S20,F01S21,F01S22,F01S23,F01S24,F01S25,F01S26,F01S27,F01S28,F01S29,F01S30,F01S31,F01S32,F01S33,F01S34,F01S35,F01S36,F01S37,F01S38,F01S39,F01S40,F01S41,F01S42,F01S43,F01S44,F01S45,F01S46,F01S47,F01S48,F01S49,F01S50,F01S51,F01S52,F01S53,F01S54,F01S55,F02S01,F02S02,F02S03,F02S04,F02S05,F02S06,F02S07,F02S08,F02S09,F02S10,F02S11,F02S12,F02S13,F02S14,F02S15,F02S16,F02S17,F02S18,F02S19,F02S20,F02S21,F02S22,F02S23,F02S24,F02S25,F02S26,F02S27,F02S28,F02S29,F02S30,F02S31,F02S32,F02S33,F02S34,F02S35,F02S36,F02S37,F02S38,F02S39,F02S40,F02S41,F02S42,F02S43,F02S44,F02S45,F02S46,F02S47,F02S48,F02S49,F02S50,F02S51,F02S52,F02S53,F02S54,F02S55,F03S01,F03S02,F03S03,F03S04,F03S05,F03S06,F03S07,F03S08,F03S09,F03S10,F03S11,F03S12,F03S13,F03S14,F03S15,F03S16,F03S17,F03S18,F03S19,F03S20,F03S21,F03S22,F03S23,F03S24,F03S25,F03S26,F03S27,F03S28,F03S29,F03S30,F03S31,F03S32,F03S33,F03S34,F03S35,F03S36,F03S37,F03S38,F03S39,F03S40,F03S41,F03S42,F03S43,F03S44,F03S45,F03S46,F03S47,F03S48,F03S49,F03S50,F03S51,F03S52,F03S53,F03S54,F03S55,F04S01,F04S02,F04S03,F04S04,F04S05,F04S06,F04S07,F04S08,F04S09,F04S10,F04S11,F04S12,F04S13,F04S14,F04S15,F04S16,F04S17,F04S18,F04S19,F04S20,F04S21,F04S22,F04S23,F04S24,F04S25,F04S26,F04S27,F04S28,F04S29,F04S30,F04S31,F04S32,F04S33,F04S34,F04S35,F04S36,F04S37,F04S38,F04S39,F04S40,F04S41,F04S42,F04S43,F04S44,F04S45,F04S46,F04S47,F04S48,F04S49,F04S50,F04S51,F04S52,F04S53,F04S54,F04S55,F05S01,F05S02,F05S03,F05S04,F05S05,F05S06,F05S07,F05S08,F05S09,F05S10,F05S11,F05S12,F05S13,F05S14,F05S15,F05S16,F05S17,F05S18,F05S19,F05S20,F05S21,F05S22,F05S23,F05S24,F05S25,F05S26,F05S27,F05S28,F05S29,F05S30,F05S31,F05S32,F05S33,F05S34,F05S35,F05S36,F05S37,F05S38,F05S39,F05S40,F05S41,F05S42,F05S43,F05S44,F05S45,F05S46,F05S47,F05S48,F05S49,F05S50,F05S51,F05S52,F05S53,F05S54,F05S55
P01,1722.8337498337935,1724.7350175024496,2036.143050338305,1421.756488877199,1647.9231196950902,1091.7771678782958,1399.765506290323,1578.4553944473748,1515.8010642016613,1187.654280271202,1177.038219088716,1358.1181328048385,1294.6201371835107,1540.1279447330808,1206.5643874113541,1909.9874729163364,1253.8934851868235,1373.93143637107,1419.8664456366641,1197.2785162562648,1671.3720133730071,1296.2833944303536,1446.9645249797725,1400.4728713564436,1790.6306768205682,1786.770774125818,1416.6099951487167,1513.6826497675806,1543.5894959153843,1536.7930638838407,1330.79266174086,1270.6445551396657,1337.5269222350457,1535.302737912501,1288.9473130235904,1644.0443130693857,1674.3787953368515,1162.777332213539,1220.4880696272892,1594.109547691858,1425.3215613071773,1383.8219479925422,1697.0330172180518,1948.415353249063,1494.382240905399,1417.2162634530025,1264.1349726018814,1367.667579039769,1335.8967353790215,964.3371056474629,1337.5897182327235,1184.3185829942354,1582.3661131379163,1302.0306655385896,1232.7682295630868,736.6788946863344,660.7975097457818,1128.491723721719,658.9082806234586,1017.2881648657602,730.270534174791,1004.5554760387245,546.3898585906277,964.1054644970657,1016.7544633285335,1064.5797374150493,584.9793270750397,935.5627137985078,1031.3698548927086,763.3845004166535,1189.8715543227663,1012.137362498219,995.787501740878,514.5286432237789,1141.7392757053901,561.4848554297724,1010.1271934721917,940.6941657276986,762.7407454033587,851.985992341288,1029.5903674598603,747.9833688184391,913.2921203063836,751.1516757254469,909.1831166250456,542.7382035773555,1130.5015933386248,624.2116041683144,1047.694108333305,598.9321123697055,609.9944471787276,1223.275834246055,694.2000592432491,958.9399215109707,992.1302350527675,628.1950811709524,905.6325761327057,629.5606772169883,1082.5207982032778,644.5494785881999,921.2861812596287,611.790209480755,1059.7453814077896,610.2595658903389,1088.1375123213115,680.0713552846534,971.9006484786642,568.527186924864,792.3854588336841,757.300487251631,1312.5894196267066,511.42219498909066,551.6072780737519,804.4959423563133,457.04076755734974,788.9124398492797,820.0210027437626,716.2768590197126,983.7339592439515,1079.8940564907089,915.4003561345436,845.8481539549979,995.6146546948249,659.5041212032044,907.4138439421808,463.5118806993133,928.6351453334285,476.89752817479985,758.8528340854324,713.134269161601,1049.0510857540949,599.4397915357519,733.0331497840366,964.401120134031,615.1386627241932,976.3388280614142,733.1363388961639,455.8964865213679,419.73387548715834,714.5097872873215,499.9768905087595,760.0132640632222,543.253625532659,688.0036181731141,781.2993528912777,556.2957892603769,683.5622187507212,504.58664043067375,635.0150076451117,882.6055593773789,520.522632554002,770.2533742571602,545.9565914265174,719.7311208381,528.7722281041521,347.72082524372405,630.031526102416,97.0114349565944,673.1083721378699,353.4030796526358,357.2345517375204,427.53169696412954,633.6781649919614,360.9996728367813,636.2528454781284,395.9490760442326,417.2430919473512,447.5346335080722,540.9328932792472,474.44550097343154,570.2855729511552,375.0045373389943,354.5912924066016,500.9114412163517,378.1603383276789,449.53871077434155,591.4537097133299,433.7662502608407,488.1962240820396,494.9791296213856,407.2188365324801,408.68885599001055,446.82992368900125,450.02941163057625,434.045088188822,349.16030498042284,449.17533955558997,321.75232398517846,431.8345856277617,381.99666079761465,310.81698806178673,206.60653536185887,253.72515238468114,394.4742670948288,661.8759994755815,483.7290024043575,461.09012001824755,412.9414510824588,412.2223902506237,555.2933203314939,300.6155808484446,526.3110824271372,409.43346296401035,443.07033574055174,206.81601958809495,514.4609831127395,302.44555911989613,300.80864727685974,389.0554848498016,512.7121474233106,366.35787089165467,355.2896928331132,427.5560728623057,490.03452975307744,423.73616702430473,366.04603262777823,327.28421280987766,610.0019512676191,422.13801822726253,496.08765154266547,975.5468999304388,248.5978671547909,791.4140430209814,510.24708140829347,634.7001239708906,630.6491026191163,630.637637219271,814.0790888404359,787.7481544192957,1037.768781481129,589.8125541080336,575.4142922597867,937.992033740851,525.5816349343347,904.344311492087,556.8873388372126,614.6869179470851,847.0893104195561,577.266585791228,578.3870972380951,1088.8124867623364,710.6037366430546,511.44265951492974,505.47168863678326,560.9249661287457,446.9251545465581,591.2186576822332,240.19925064760878,224.5515523857269,687.5982608021245,420.73736834501824,792.1649670426435,543.8415153889295,1008.053563085698,573.6798465915552,1006.39374627901,610.8184853785878,693.011611502265,1244.5235355934556,532.0432438560656,879.9491632225855,731.3210564112309,484.383109284865,948.7898808445032,693.7080218653929,587.0121660103971,495.5381945449317,1028.5185101340478,397.1563449530875,809.3021661935531,547.6731954753358,625.910610947334,265.14823135441407,199.6080923950263,60.95773442878292
P02,418.9130333545205,464.5360705151496,373.00081685934686,391.39898158393447,279.54370829846386,412.7868863894287,408.7302359614344,278.3502272289821,401.6476481023985,397.77265452666626,265.76328151543623,384.0567069672941,385.5565110530841,454.2980261868081,278.16681378576203,392.63276999043643,386.0754904075983,435.42666875809124,405.5885452262991,512.2698060013786,380.62413407043954,287.2847273068308,363.0245058015547,401.7733395913051,484.6564612369712,369.84233231377493,376.3469115589404,435.4332108626008,409.76172007977493,415.8760483613577,416.5241034449775,416.3847965570997,404.3160606045211,244.14841165202438,453.5823825950514,482.5352127348613,290.2594704644661,408.99034517049273,399.2580115979706,398.2398514028059,417.10040115950113,391.8266165064437,337.0040481409074,787.5496476981375,432.3349160200397,395.66218811438443,450.9416446594948,658.0134070823734,401.52743574826445,419.6386055888414,401.6978146905545,365.80138779824307,397.7661729284721,275.6806543383193,425.93372335421105,534.6519363027653,800.9237962057948,921.3347692558563,528.3159377846742,632.3438682951564,518.765838504543,722.9355149566212,624.3941363769623,749.3518058154725,761.2522471653543,587.6386160940344,595.7245868392422,832.0370753729064,675.2079561543624,485.0474724071269,530.5919843065044,774.5005233095764,715.4668953177911,618.3214229896977,792.3170201146776,877.162322549574,461.921784250219,742.5361166154164,590.6423968166037,721.7561365449401,617.6144824020828,545.1497439699481,790.4858523615851,776.189733773058,522.88703284433,603.9976117294514,457.7968016858869,616.9222852131301,627.3034063818077,490.5040063353052,549.4305944035258,835.3038871924126,716.3010906850444,489.17206823109996,688.4291042226373,634.2954190510297,761.8823294201956,747.4649467951662,547.3539781135203,759.5364981531148,763.9593526744463,820.5046403279173,547.9306368786297,1066.1075358472083,646.0618635651567,655.1012761930558,706.564853251142,536.0877865047531,638.5405061525772,702.7536955667567,1418.16488848736,1142.0205918898835,2799.5434536661564,1099.0092053048766,1221.2798246564873,779.7134147343844,833.6055729413306,739.4090565949798,888.2670977247383,939.818606912279,844.3931326915547,1025.960608667461,878.3988325250937,773.9871755776836,784.2710108171945,652.784620847157,885.6263900815554,664.2330986058746,811.8876754680609,867.0810602343088,630.5648093943884,803.6641349545735,697.1520902424871,688.3261620070559,1054.5141959679167,968.9769297094441,958.4249608957861,1140.656004610474,684.2151061518653,631.7795802209367,1040.2673588601117,1281.022263339118,1065.755240092885,697.8599698422858,725.9718002092503,966.953277766217,651.0666043287688,790.7210000350983,661.9025734222347,590.7331509402757,855.4288000922443,570.7049830842546,799.7319770392913,537.2510487074119,618.2576081086804,984.1325354200237,673.0628974330627,617.6284159141701,611.7561555318898,806.5847035919585,568.0804168072692,588.8325591390429,607.4459823353501,747.3316270298172,557.7030124504855,429.98805776883023,313.18723191483343,332.9991644157873,390.5855095581332,319.42970131243885,402.4287745381093,339.6181281897123,405.3539831096028,394.6520064898875,412.30017157789416,449.5781655167846,449.57397090192836,417.87230006892725,353.1708200292737,503.562874771135,392.2594103679126,560.110173174521,354.1809425979238,480.78556571845803,413.89791835086913,467.79430975449645,505.5761590949666,542.6582585242385,467.4455707952428,485.9336686518616,387.4066742947059,504.4122414633998,527.4030959479878,474.0694234803991,420.99086306976045,407.4310631864983,381.5821188256215,433.08320665077906,442.6876169435805,346.79568883632965,356.0489609445528,362.30772876541863,490.74351050061716,327.6844452343801,420.8052787368531,464.39414030801606,470.87496101030877,354.80306051491834,295.5760884707109,353.8855238451912,497.1555908675476,265.13517188603066,386.19149734970983,484.8658043872646,390.51490667554305,366.73690175043424,398.68335235582185,374.81617415495924,354.50710312116047,321.8085939776459,553.0215051011807,614.8465379005227,568.5647665475861,637.48202307118,660.7603994357204,620.9583681071175,507.51065156971237,564.6865545641317,636.7637951309747,527.455774105205,493.2902200201432,646.09269264835,576.314042540781,708.208130742338,636.979270401887,626.5119105254071,530.8985089331578,806.1548339665695,517.150315559708,481.50648037616224,576.9361865884653,450.7451682523524,363.8005422249694,532.3627964695245,482.891265885048,474.5195906194857,553.6270487282158,623.5946409040579,667.0425696143285,544.6323774197637,516.2260485022655,706.415626059966,478.69021796439756,643.1274697816291,673.951404970923,540.5139927062609,697.4086442245928,580.625652837297,650.0690978721785,585.8507432206039,544.066443147053,613.0566164876249,630.8381727864883,472.953565141095,640.2196759620359,439.17123819582616,395.8775094167722,424.62683007593296,462.40353719095214,837.2113983020942,584.872122853199,502.97127724139875,753.6999061647494,458.7560647033559,533.5572268470253
P03,1868.4935764124493,1940.6171090010794,1891.5560419458227,1844.0946914055278,1829.4843798164293,1909.3994010244207,1860.9953139844283,1839.2320890159153,2045.5177570712633,1851.9812355787342,1879.8931141408934,1897.290297663594,2771.1838691507287,1838.5483780059437,1876.5771299283995,1954.737874359297,1839.654418767655,1940.4502805485345,2704.4825574072997,1835.3384036713742,1868.0057433808895,2732.147029234422,1841.835497681618,1877.7488626023726,1889.7057892950356,1879.3586967203782,1868.1825148201092,1832.8713206292048,1859.4069895827636,1912.0998357538494,2792.347203870264,1847.122624662611,1860.4206158387758,1866.3301898282887,1925.2074516833818,1929.0212574138798,2024.3382230351554,2736.276997931119,1845.5865130636873,1832.9665756778406,2758.1453933771004,1846.069157878764,1830.1556503635798,2737.8110516226798,1838.1573207318777,1800.2664974014447,1930.1737177792484,1898.039679708514,1827.6969811735794,1816.7193644292154,1885.0482269154008,1885.8562422794162,1924.575157410097,976.7559821013311,82.91096867595185,666.6770941267481,489.1065131546648,698.5016726483414,684.9906299504757,632.9229980352884,565.117714479514,647.9903766323606,735.6394744339949,573.3861471595777,596.3394136286528,734.2575063803195,884.0879002215306,458.25096995412156,641.336799805652,622.8189454657972,757.1884881059468,441.29383319265463,697.3018897332935,790.5816180805759,511.68124135771933,804.4236430573327,721.044767103208,527.589445777942,665.1633291390237,411.418114107895,663.7073397247203,752.4266498630182,641.8848419379196,476.40977481566506,666.0782769144059,622.1854790401803,447.6439303022533,748.7918564024119,639.497180460653,403.32084058171233,694.2963058124047,458.3514924655868,645.1682516364434,688.5809796856838,632.3753635217522,498.12841471044334,661.9917086487617,442.1660205867941,498.91500423515265,632.2738438495277,630.7420417169112,695.1735174655071,526.4112699238458,690.6830584104029,595.3706607324116,459.3315229071956,627.6288383173056,717.1401058900695,545.9571041085559,827.0436385635744,335.42981752252945,380.2984099347068,433.740602047457,424.19532899998376,374.70191725523466,287.92928403330814,375.4321236064216,393.16635341596947,351.689926547017,370.35935199214,429.16735522139066,444.1983537930345,347.6983395486567,432.8920728139164,457.2123270235649,304.74464699445826,316.9224329421824,388.01602667436293,476.60213570326243,408.15963750683176,347.2374843633046,410.77486146914447,569.2944233800295,327.3573895066046,432.1828042806109,418.3406729665513,463.3946254905174,454.57762357996467,488.8544748571129,372.46989512821455,376.86880424213894,593.100800695415,396.2788371087098,334.3139984455038,476.31489361109635,388.0278319194434,345.5256705058913,395.1773667820991,399.4952299988257,369.33980479777966,401.2905971809521,362.0804840696902,439.0970721773352,402.35441188283755,286.962242157772,420.00226882870516,400.5804006032726,369.9671614591759,476.5827579333592,395.79368795624583,408.75758986053376,650.6792983042258,452.33247968755046,390.4038375896262,331.69336421625786,685.0934648584191,1228.3478329222862,38.47931721910706,1251.1922852428097,631.7435404424444,631.7688450649184,1160.7726834706484,650.7868139772028,50.28378362164634,609.3563622675991,1169.7706055989902,1237.0537708434347,1027.127398898537,1084.3769004104981,698.0521384932631,1127.4677857521453,1164.9624238354902,582.194746867814,1154.4121657219187,656.2394943371528,620.4709709956473,569.4635257982627,1175.30436678344,601.0400044749987,655.1538310493258,607.2589535425444,663.8325370601705,1116.0088498715847,609.1710692689911,43.133138660422745,32.87743828677825,46.4914313921655,47.55563353394149,45.71740817444629,62.377281276341336,1667.530229926977,1149.3305699970638,1160.2295893987298,1114.4322866911364,1104.9088684517274,1058.9902569799963,1094.2990486477086,1111.485818574398,1161.3522484006016,1158.1444711346344,633.2821685845246,1136.3929106728365,1188.3013993834813,1148.5027783319663,1076.6288964882046,662.5759750673758,1132.1719340835537,1215.0822194611471,68.61218559383727,749.6639100842401,750.3751853822495,531.015185901073,636.6653836684964,854.5977164149077,540.2487341322886,651.0911036105643,652.5464360029354,732.2436336029738,878.808143653154,657.9472724725138,568.5141172639853,772.6125511397897,950.8640839598853,742.3672310435413,1088.6145286733188,778.0093286686918,604.9944366020662,703.7645684372465,588.7087891191342,1041.5298892057267,567.0275054267111,685.2977297819361,776.0724154198645,816.2041125425517,864.1887385865982,680.2223546467368,1021.3123228963308,706.3747776494582,734.4662216261587,946.9805531997694,742.1621176309567,591.9310737813641,389.95091347196757,710.6846816206112,599.2032131931848,555.6267183759257,876.3053328665711,620.6914181745814,611.316583372731,655.8248399721377,1039.2804445280874,780.0352686970194,766.9496862269472,641.3635211394021,936.1436063321127,809.8235782168381,704.2111304462702,780.3511886893484,729.5731945510579,881.3942545880171,670.3756309788782,460.0464078541368,642.4245560177048,393.02862651325404,747.3532636539336
P04,380.10999336474157,367.7730314632607,560.6954109697905,391.8233950504588,424.4464491319275,398.91533671397633,670.00902295419,362.8205603986963,577.7115450728887,574.0987060834806,427.8977784184247,391.3145599548573,551.7393120298202,405.7523114951064,586.5850933010129,642.7371054377311,374.1579083447232,364.81462543047905,323.2905825492751,357.1457974664369,686.1440445767591,556.5124540616853,572.3224977141151,457.01561510687554,504.3682801743013,294.41693353895204,625.98479341383,443.0949045414931,311.5717861829335,638.0855220771856,396.05020034271064,496.7601374424724,521.9035288206609,577.3091889717915,634.3116926615817,386.6759494919337,522.6395542944116,598.7742963300175,624.2562451976983,589.8447990540558,1340.1760487384092,411.3358796474565,1135.748518455555,587.3888554765783,383.1240516144381,310.4079968497263,621.1463541131807,537.9005289099373,673.6012874778676,645.753837384097,597.6093176948218,425.882047931749,580.8900478483528,306.20235204319636,22.24224403588921,343.35163320873113,429.17778971443,447.737124167916,397.7671991378165,322.3327437884859,408.7696575423635,366.78065767980326,365.0258282371324,453.0975687080096,374.88252763081033,357.0584089287842,295.931437708611,442.1565593829934,374.91367450756076,343.17678814106097,406.84220386986556,410.08098913221596,473.4297174405133,297.1594681644794,403.63669131192046,361.0606728370769,452.3447658082333,408.8383954383739,491.4305896080329,277.10176211251,441.5203757275754,390.47467111948805,375.94426591476906,393.8323906210112,314.04159769139795,326.1919947470077,393.9390151382542,321.59010223262493,422.5597634380965,344.06601564281146,335.3537006213209,467.78293224710404,464.04089181955806,408.8068060638159,335.6173852971168,355.6392027510605,456.20805209505556,409.4250146567232,366.8540000648611,410.9243342362351,385.2464582395592,437.12024304944606,358.79274027286226,402.8358328793346,404.2047177393719,387.53731213911783,442.58314991522246,511.5664795550671,209.2670860441004,186.95597667606705,962.8967973032361,961.910868809626,1056.6461763265872,499.0477633957698,921.9909448239347,907.2021360688457,952.9388839332315,505.9380044659524,1046.699898454988,577.5755989182937,934.1907879664428,942.238729067975,967.0768522267298,1061.9707969605015,1013.1142846479395,1000.8114588060412,966.4281400761321,1278.0403856244695,864.120271614459,946.3005708592849,1008.7087292596913,920.0820739241923,996.4506369199726,1130.3193664888277,1485.7395984041307,956.9851388188553,1395.9128419106307,1252.3311292950452,1047.5057955033658,1023.6867835791354,975.4154154803955,1405.7086898347382,908.1051698500501,965.3536114320581,925.6748262472281,1001.4325925004335,1023.3282743613715,933.5786376061149,1564.5510014793115,914.6645294751311,912.0207627203207,1033.765137691906,982.765115284577,1435.343549747968,936.3235821725211,911.4931488850376,1415.5636952460784,1002.8159243966844,1000.0157863604452,940.0547805789175,1004.4738705071301,1401.483451495691,993.4712451333675,918.541432307203,972.9225660283564,653.8495338143952,885.4608663982506,823.7668105503377,778.4469553315278,821.7014050973996,776.1893264940236,828.6091346782147,856.4559523009667,889.4427310618537,789.4588847677663,993.8025479392892,769.3559330212511,606.4394093592425,712.8050439018656,761.0431215037167,688.5222735861411,837.7752991786097,824.0878037418237,890.0718787878735,865.6938481680158,728.2034930661533,931.4295118671969,971.9557164249467,824.8654112795964,825.7828498670252,505.0120741546935,532.9771909027479,78.59059174970307,20.574039197171746,29.571032711974777,28.09484432096787,37.279600583101306,9.207059864320863,25.83936863419227,18.883871785406523,13.552882046479558,13.363099452141853,617.1479276515596,464.1407171951854,454.49899604876333,764.6077493542505,765.6548307615536,1285.673958714302,937.0933103846312,1055.6030313486358,1090.799214908681,1318.981132679391,1191.7405485548509,1217.6474946005926,936.6620678179846,1245.9763264291116,1033.9140272138147,1116.352843770359,1108.6827860284682,905.2416538931714,658.7525697974972,359.9527121834939,460.20600370817635,401.8896326742227,705.4440570328553,560.5873530362416,383.76537540837063,978.4975874031986,605.4813387169321,858.3168388765207,602.8853050595573,674.1761179934723,839.6862995817285,621.9041450711526,694.5262366167215,630.4464894124416,687.9666407613636,900.3055725031326,460.6098944017159,688.6699370530876,475.1003678580717,485.7854637802096,665.6023514164244,457.55530135748637,445.41133139753964,388.7288157018105,321.0430514216163,457.32963570149275,413.52876824905684,506.4834655057736,442.18691640521416,543.3593758737111,287.33708629103546,558.9850405081394,275.3897401587145,419.6441949528569,275.1312237108119,401.2617138034114,426.55329178275485,453.6901228754796,403.9418971373629,550.3798325297532,328.29945079336494,391.2183004279362,324.2502435801627,485.8100937149251,444.16758736668663,399.154517431713,350.62951423287956,583.1898622666429,476.36975303067857,724.3784276103288,344.1562808648145,382.15245719220553,157.71681018135197
P05,661.052795429158,721.2541308218541,5743.2930022231485,576.9420430119691,561.8133147483644,505.2743884266242,585.9276317090247,517.8661187766571,547.6966115370105,556.2947607425779,460.8925284101953,486.17415224321337,546.9372823368424,510.78647174373197,476.7647968990015,503.2115282453384,390.56303153936676,462.27283483328597,517.4860985489481,659.1697470957844,603.1734520362975,516.6219442995505,468.6796669268145,488.9366261527673,549.798569298914,527.0988928175545,622.3948112396224,418.4078002077022,584.0888823409066,609.3532718402676,591.7411951497985,624.3419905570354,440.6429676316534,478.64321189771266,527.0436170923286,455.47397463329236,450.4873183787003,544.2968199425964,487.34628279970775,542.8945932728974,501.05641201395025,560.775421702578,413.2807708749995,485.55348385083283,548.3549073698767,509.647307490914,428.7381195492854,527.0610208880781,721.3171592654483,610.8467093149819,561.1545586888008,525.1085075717691,522.8292628835914,471.0866474509452,637.3653204919242,611.1893725819799,585.5888955326302,509.44047635324864,556.466678090288,388.1418501219819,440.0143961258213,544.4621916356735,423.84464358096113,559.6453233762649,462.6894700787409,385.75251392599756,488.2848400779572,427.17098787645597,463.3758017889636,469.33614228080756,513.2307609153088,394.459605137559,650.8714323421608,513.1409695603421,643.7396256873358,552.2811371978086,556.5988401761924,540.3138189713032,413.3511932497851,595.455615242506,375.6359308104266,430.056254641698,463.30181243191254,449.40751530562704,558.482451365518,474.6556021728785,609.4915939851345,806.8252009640856,688.8824406750371,444.441882120107,331.5348323060003,514.4459428502978,427.5937671255603,401.91042055224653,435.31327368305296,725.0446721931428,495.3832149447916,601.9672064432692,569.4319462881622,687.4547388497461,656.5671294907733,797.9195978490018,747.9179101756331,712.9824588138299,461.9780592506977,535.8232571263699,555.9032010112951,543.6413987654383,659.2707457843305,577.4381903650512,2756.238772573116,2898.7716907882254,4904.528338225292,4180.937874811741,4670.604916960586,1074.9233279881103,1319.1634475928145,4497.708295642122,714.4743308690104,310.12435285255947,2580.5889825141057,280.09649446947054,336.4009569783311,409.6522333818061,959.9986687715873,284.55144050142763,307.46741330363494,649.1409628388037,271.27505350488593,906.581714523196,329.6625886133441,174.27648946425538,393.44393508511644,603.2007063506952,377.7795661340927,513.4590078852673,849.7912975598791,827.7745119611956,306.7514003877399,302.7152609986156,275.5650533800486,339.2507921226021,434.6336983439098,680.5454182099694,753.0977642068524,782.3506593859935,1190.2259994445174,256.5994972549684,298.5662907354139,294.92763610129134,1006.2632562705609,333.8922764707822,952.6087565510126,528.6428610312082,505.6984060143616,238.1802811684297,339.71855259503155,537.4854736729625,427.8382649871878,388.4596577863868,1194.7307467474309,856.0164484484322,223.26754511485046,638.3263357574249,303.0501725721653,1628.3384559495169,1249.6282848282372,1628.4125067948776,1835.3382289765725,1174.5469095884862,939.2642077138345,1763.3353036367494,1956.670818446517,1158.236784185444,868.7072038006194,955.6335769072473,1284.2573583876786,1920.423890660525,1394.2170547587446,1017.3961681340836,1847.6496180344443,1146.286234504091,1818.4304828445056,1369.836507367323,1515.2297853189002,1952.1934491304419,1358.621540355073,1570.1044063633028,1186.7305343368141,1843.798752003515,1330.5989133347175,1051.9356257132845,1768.3851231060837,1241.555973968509,1843.3475979565783,1745.1361150498508,1004.0757642271916,1914.5375061368707,1325.9060622797117,1857.1961299775267,2127.1082944275763,1172.4458588881846,1962.3168117392659,1219.8339297516718,1599.7780611135943,1377.7982696796557,1374.0025356159413,1690.5811281413814,1534.6354754659683,1190.468991213791,2000.0440713561347,1256.513111579502,1912.0454621209005,1828.5577416574877,1212.053818573989,1870.727748964144,1307.776211631776,1802.937353126258,1687.2570906201431,1100.8122637324302,1061.4212185282984,1790.8536061824016,893.1069654569998,1342.4725019326845,1269.139240606049,1194.2845613498644,817.1657813715425,1107.4262978749578,1091.9012819809066,1260.7604175782221,1165.2607144579931,1164.517133210025,1094.579477607624,1196.875635087708,1493.0565741630746,1258.371878741365,1202.2424871991097,1503.4150791400998,612.4985611584846,1430.7868169699896,1216.8982899378418,1474.0137693389559,979.7252943961234,1529.1359280452982,1933.297911154145,962.8654216896776,1499.6810210262463,1541.064495988024,1471.125913604116,1369.507802427241,1249.5398427401483,1192.6207954575991,1478.6234876277272,1396.6817339565603,1222.4037956195275,1430.6732848391962,1221.659836470738,1520.0777707364336,1267.3450323460959,1531.397636130037,1593.337496695224,1531.77026287913,1620.3764412540836,1536.7151318196702,1562.4159659581883,1457.794805072586,1179.2428223455072,1647.834465593771,1321.5634704799868,1524.9024234065216,1196.6131698430502,1408.027223165788,1521.5315449663826,1453.144600539434,1031.029058203195
P06,246.09205279092095,305.34028399351087,330.27306950515197,429.03145702976514,383.8572275419602,409.22209974201166,440.44812941601333,617.6613821319949,481.15676547792856,306.7128736817217,344.9743130410102,348.7251064770281,480.84145468446906,498.5030707936783,383.4481281377779,514.995009438841,229.08174619310861,257.0144388609622,219.45038067547208,236.12169501475032,386.30235152781904,377.3769007965132,329.29683310904005,45.982723089870426,48.73318902739748,109.2152494504564,144.32328283806535,413.0032446448024,408.98182801709413,414.98711806838315,444.23456596688305,547.331858292628,378.1473506052841,209.0913781040362,239.4727672864529,389.7706667940694,526.6959643373345,382.31848879278385,428.6963178837038,379.1409730873336,178.11424860437938,388.09768059023554,527.3789077898205,539.4136249094967,437.15099970142785,368.1131776518551,399.2974662073966,591.7301732149165,630.4119341441591,459.423304020826,514.0289633032726,440.0696638981134,406.3056129321794,509.4082707643655,317.501650976468,183.85227491001658,107.35949577379353,104.62892655431676,109.28841712375393,111.34823287244969,117.0044587437027,173.46079399220557,120.02295746292295,192.55134783923563,109.955338798702,176.80510501253474,113.67339860748709,118.84845253355867,102.98569571181851,204.11517486894542,95.30576549499229,176.4027078393857,191.35577728171262,188.53552878550167,116.28507688562581,161.66317031369894,114.7649095057778,194.79943971206242,194.74014828782032,98.7934984918963,189.8261933212993,98.75115118467275,188.0975969832138,118.21897052411084,115.68412280309634,180.34406972581115,150.16114002072297,112.58044222861784,105.3049994906921,194.60609524575045,114.53407223340152,202.59556755911134,109.83115793108696,196.920356045768,241.69241114538278,113.6778108350069,191.99936295480305,131.13212368357415,212.8226235449326,108.79921974245828,181.91175208062066,196.43936747223174,224.03853482539344,174.3892891418673,199.06212191804008,218.80725547338525,198.88545660732368,186.67575014367688,202.5697241705444,115.62222954900147,151.97322892336115,140.8156867329611,194.28624257928308,196.95847304823826,178.6517889279869,166.98714039475988,183.6393340865627,192.91126162080138,171.12303481417635,255.48099608848239,150.02330252310034,125.6534870497134,103.75941988820053,158.5674923054165,109.85412658021384,146.66797904071467,158.3158313384617,101.19883010791055,152.12993759689462,196.99610527468687,102.82266960535026,69.53711128319524,136.3366148462065,118.42761990850737,130.3969430131008,140.28154519557305,96.325853602266,138.75826136952261,74.80382030013541,145.9253494108099,95.05863859119758,148.51577932455274,137.27896886209,101.28767959904182,143.47152632758798,156.36634902903296,107.1723638896185,98.38029064827825,138.68854210892158,135.05857395568336,94.05984853415103,86.13791690957352,147.85548704984515,103.77201842717506,101.22012623177572,100.13983744043271,146.47070230832443,98.37068642468462,143.63797081935303,133.8275095856384,100.79779445139387,134.69385477160696,101.68885084229689,118.59723446982184,134.63001693323005,639.8266880460968,278.9219297253735,397.32810453307405,674.0655182408841,399.9957501581648,457.48837433821626,498.8966181781401,391.41427698626774,419.49979122535905,337.3705503730798,434.7609464106933,520.3471514143148,532.1360225575933,601.7342186540075,399.3982163830545,416.0276797275751,478.721724106868,549.0203698825715,557.2355654429958,403.75746643986463,642.9551362141268,551.7659243325404,503.704117470531,1040.1372776193216,535.1771707990332,492.6220509598149,472.5828917702455,455.37296908721555,594.3511892613017,573.9097497500599,416.18581355022127,536.5614290173263,665.9059652793433,496.8530384523543,511.4011392073709,420.1276311391757,364.97727326410217,495.0565785698623,437.2009074723813,406.5894436698726,646.5261740970487,584.4130061462322,351.133883655677,627.4909791246602,555.4794115567546,457.3854991775213,476.54008143021105,710.5588994792812,416.4863913367745,409.59298378532213,586.6921991543832,592.418872371585,425.79616403386166,642.4197733796526,465.9563314001866,287.27180920003224,361.8413300078223,506.97682285814625,411.19015640649735,512.3164886406261,368.89850671524016,423.58598876515157,448.87483597822495,474.0701530093259,252.85870844179001,429.3131259600247,493.42959071538434,408.7567964590602,412.48002523660625,334.79299629587064,425.01109978616375,313.41280078849195,467.0519382767092,204.72399238292886,327.3845037699795,376.85551822510394,358.2934952305672,304.3485817944349,350.4076781607147,379.91657425468395,440.082154994313,292.9623400222058,196.2487656509807,393.5119236072266,298.77688492243095,303.89204129962104,434.27225733989263,445.6937234480614,399.4452640220624,425.0988041072799,360.14552215350625,377.29067915834526,305.22536095886306,367.62496754566337,384.057745416324,284.3120323410167,412.11388581073834,471.75981966769587,461.9235488645937,389.3068909407792,584.6064652938827,403.74201343515153,459.1998801298029,350.52891835325414,401.3339488880284,547.4458437978874,413.77508992717185,800.4086415950917,289.55422190579964,507.9906299982266
P07,322.10872336382755,324.63713278448245,354.18054689401976,364.97891552931685,369.0409002911345,345.0687500779044,394.0664946408723,345.63529872071973,399.0248046523059,415.9086672526673,464.35460604842297,618.8155200343454,456.64157724116995,858.8951979801676,726.2607144482951,872.4882471637289,709.9344935519089,1138.1323167444423,1205.6407541540402,1076.4836362959177,865.5255985197721,847.0017940551978,505.5706045533229,722.0756660261565,609.0999548792579,267.1346667361286,353.42317890208136,407.0510865051696,358.045566050255,291.1825755064273,339.0749594645089,371.3784035809854,373.3622871339976,340.88311598289033,358.412475027274,369.74103859030066,379.54034230981415,385.6101647830871,408.61528204299043,363.5213270405838,519.9026801164528,445.9342267757473,532.3421924167816,664.2268436835196,798.8172292616218,894.461935566709,840.6117358476404,917.2064583031049,740.2965816426395,1159.210722211219,922.0492527309364,778.4908179426658,951.1159235925446,798.9096814116671,981.4250726934621,1216.776413879965,2024.596662361804,1630.694706183212,1409.7138161187772,1011.6897386159213,1488.2484259288726,1297.1562105222797,948.728113961876,900.2244250598941,881.5631347634289,2347.669876013592,965.0093805594894,1876.5278516570443,1010.1210253797432,1117.1404346233405,833.7974850533531,710.5245472204073,626.9026345033393,767.1347981316278,698.3445576168233,664.6907101542565,610.643180649145,902.561746032167,862.6718116576714,676.9101929215342,766.5006575980157,717.6992688683566,502.12898181813335,768.0599635462714,689.7732419610252,816.9422460212668,556.4398726606347,723.5913148650294,157.23189777268473,279.86494937325944,339.94463145382156,686.0745183784378,391.3312398460211,318.40526431123476,327.9837239820239,363.65536375865673,236.5835593058959,110.97662290121099,382.743875567625,319.6418286377203,714.271978368274,161.6490186955662,42.41475410566107,197.66820572455893,259.4428234414051,910.469115195675,756.5323463167719,791.337214800929,549.3790724323588,699.2772324081824,2079.7774596400886,2013.6310470546746,2111.1470832832606,1458.4860018532568,2650.7364326110337,1452.5285050660214,1854.7730500485031,2282.6767048562333,2432.3044598841984,3047.8970154036792,2272.570246266421,2946.7823655349926,3080.9440932727503,1647.749487903209,1852.7539449597982,1249.8300841254995,2123.687809164575,1954.4868012443646,1765.6333866042985,1794.1175641074533,2137.9208330728616,1224.2250564261385,1762.0680683758274,1231.4164471961726,1869.4334565958288,1181.591711990767,1691.086782626762,1290.8453624111821,1909.0938279172603,857.1273520145323,915.3039279383324,1966.3321564993553,1150.9750918635336,1122.9849367321335,1637.9106265030377,1126.7928046184031,1146.0836397088794,1215.4656101832568,2091.408739692947,1206.4316463405219,1382.2164674791773,1742.357230246112,1447.5596100694845,1834.0362132887699,1886.5608633570575,1762.94603678236,1879.993546731794,1690.1494901697215,1968.0038695119772,1988.1960432884282,2067.131908165288,2159.264862447769,2135.6013156925032,1810.7921913659607,1268.8830894121961,982.1033435405278,1073.0139704214905,935.1000407501073,1148.2819075870973,888.5655043974361,1015.4059724804765,967.9467088494946,916.7990703547152,803.0306051333632,929.2604787943048,878.0343270633305,1231.368263921449,1366.0514956979423,994.5257311248824,1459.0650514726274,1270.3337967826735,765.2534024107091,864.248694428731,973.1374996030918,1029.5029079679618,1288.4189779461822,1125.7184489006938,882.5765762111063,1109.7157938874998,812.1167310611976,1519.2811977327615,887.868699819029,890.624070992844,1101.7053819909997,650.6529270776294,1363.7151516657216,1775.5014958311542,1386.2466118119166,829.1999046481307,938.1735780225586,1076.5059750999196,986.7151251352457,848.3690375684208,660.5308302490342,543.6439558512276,1070.2041567193294,1037.3379377599201,1917.3937926934811,1462.9013749934506,1438.7664007334936,1342.628479735992,2037.9965890796889,1537.7850481992955,1707.8872011523092,702.6851194332202,971.0308805326757,1138.8894881345766,1416.0264786572689,1717.6625429030014,1519.283451421039,479.8287607076474,496.2558627940362,463.0379926219541,488.3261308325876,435.0351438470605,480.80980255767497,508.9460661928973,398.4263133687569,524.3207710688612,300.5534993238627,363.6768792244068,494.46083546615404,539.6998579234267,643.0189105662893,513.6788388504064,369.9009489161815,451.23405641147457,496.3419502980541,393.42124383052914,394.67080126262437,651.3177219683658,586.1497656969166,488.7737046522608,441.4711942268967,528.9370847404928,486.0237451873681,688.5266727069799,391.5866455939505,389.3244280116327,487.950776585415,444.07456452328427,478.4950138904808,466.1469548438575,358.6908535823045,397.46004735923555,388.36603593025086,301.88484790723794,372.7174203331898,360.6756512341017,374.47581550585846,358.00166811329416,349.81824176325813,521.5133204834684,542.295485227057,381.0237289708667,435.72204289500786,406.31449753051976,503.83066970514915,330.3752387265081,406.2388874819186,420.107408431918,427.3534135670887,270.07034845720904,435.0365375760693,324.81363290713927
P08,1983.130792672628,1526.927151310108,1465.7231946273375,1964.2741457359646,2220.9720937649745,2276.142753244946,2385.8510072574936,2454.0880983545994,2334.6080434206774,1998.3211243038468,3686.3923345094972,2114.4642269552955,2682.0532823644808,2981.3393920545464,3332.1543572000237,2271.2314023022636,1789.2689795441695,2128.2471379355557,2003.5542961520503,2247.7475532647186,2281.3858934722966,2437.3765085992063,1944.9531150333255,2054.150831593691,2306.3227447392187,1900.4842963049282,1761.105959469833,2018.2200465399417,2289.046333183851,2434.953963355145,1940.664581430733,2183.409076807563,2116.6627977678504,2280.931783688094,2063.9597028188014,2158.29401654622,1781.908824707213,1737.7136531751794,2134.615348882572,1539.4403142542224,1035.1499202224827,2308.3745043995914,2054.9859947302416,2016.416755201707,962.2883799028566,1638.7144836834923,1945.1999873361865,987.9775583222623,1624.6777321156922,406.15389134650627,1748.7777700540134,482.94853151997285,1242.3583764547043,1153.108682900911,1101.427073847018,459.3232958808742,660.9174338875418,568.0419619256718,503.53895632908643,415.82776214629996,1012.7715416131261,622.138895254306,403.1560816991022,675.9658385639198,719.94746693752,634.1034110946804,810.2395640636668,752.0131448943561,737.8244080730638,762.0299275434588,815.5340911365001,443.44748779911953,750.3031012412123,939.4472722444041,619.9323654134562,844.7288197511464,798.9118955583832,670.0445550761434,914.3921569066688,707.5497995216451,598.6183362916362,636.1738687486346,779.280031418329,487.232141808682,612.2939339220449,547.4732316613722,586.7084548807704,516.8997030381977,839.3563049960701,805.1319410369927,552.1393861709593,617.1602723908818,722.889489927549,591.8693819563722,888.7350458248275,555.635460138365,589.1377116066426,892.3431247016351,684.1167496890097,938.8763015435283,750.1658908186746,635.373941986859,835.6654671218424,864.4024617499151,481.4446997821831,766.500691697538,766.6534938392817,1064.7943516561975,615.6047180790116,817.5874147828968,2965.954056781151,1319.8006293803867,3302.063005907057,3637.0133100741464,3477.5996931840045,2941.687640715559,2796.794609969748,3221.3049248942943,2395.135418276285,2411.1075381012947,2215.0938481981866,2705.9121107987603,2684.0695751814,2923.8976136316523,2579.0786672607687,3486.3902364201344,2432.700336679658,2428.048743993613,2439.1856936110094,2711.4933399067127,3644.518213170699,2492.7171549662585,1433.025686940343,2299.8838650736066,3564.1220014227006,5007.895014652628,2963.1129083482915,3137.103642555474,2522.4659721671214,2493.768598021757,1758.7522759076314,2426.762753783977,2648.3778531348644,2215.6962613602973,1678.7735428220208,2667.0335397883878,2089.442314060892,1987.369418092498,2410.5316314059323,1629.8317565025532,2660.542685152346,2571.4850974427095,2574.8289974976833,2373.650932857214,1799.6175806076067,1828.5257620979064,2028.7522205329453,1228.0722397012405,1970.0445527391762,2483.1268768324185,2598.261071412007,2611.661068774118,2270.61816847168,2579.2342140958235,1839.5226331480023,1710.7542268681675,2520.905134579295,2297.6363948767516,1458.5461553189336,2405.157511682341,2061.747606924241,1522.0697706360684,2059.0086360800915,3335.933536369886,2658.727293044431,3289.169585113843,3204.425544255758,2726.825002583946,3294.1513874995035,2380.987823979908,2470.0669530263103,2196.3191351135674,2338.6168547054053,2405.9797395009637,1515.4035496911233,1648.242047140748,2530.5596564680486,1342.72902916936,2452.8745431891375,1251.243023836475,2433.773080613188,2382.849450546628,2515.423124775325,2661.0685079351942,2621.925179971277,1667.131274744081,2509.774712306818,2423.061743497334,2575.406810364557,2593.178663394612,2435.563207456298,1453.7444217223706,2499.773250940603,2529.8045272436934,2452.2511602797613,1561.7295780856366,1825.342317004083,2689.662379275084,3583.121368988072,2610.4894675130104,3615.7085113641797,2787.7033729074687,2585.61974973374,2656.0022237877542,3749.284108670788,3510.3483730190646,3565.28408170714,4806.431456313179,4535.925659998659,3440.50763834925,182.79558298598388,284.62618556155127,38.76369097943779,175.73793036539945,70.59157187375915,157.89248152371772,33.598908524244514,59.31304242718613,179.67175903803573,178.17103535153777,212.94841454699792,173.63310340890473,194.50851967970888,44.42575025907052,190.57712277069177,189.07718229105225,37.73244598648157,203.34318064514085,66.01077535569168,24.155094312522532,180.31045504206887,200.50957874685096,193.84340802669453,297.90766070656105,667.9403827992097,636.0141758356269,340.83435253244494,559.6126548621878,660.9881079745134,677.4317976504433,244.14833998287844,801.9574477553801,674.3919426841953,989.1234007051255,218.53145913323175,358.88819949096387,957.1694189903732,1523.3414723975739,219.53680449420972,820.9775542294341,1912.1736647204632,606.7900364664657,722.9508132763198,819.8540391051199,739.2854767289944,887.1309670368609,758.2910663164714,707.622697700872,625.997463533979,986.060244522295,774.8262766576484,285.98338118801684,587.237971323132,592.2260027336356,801.0455836700972
P09,283.18445095214076,239.47324587532847,299.18001253601795,184.34230324545115,249.72968261794222,300.414310246138,357.05478673756636,310.6916469810445,200.659227535734,299.07929412281027,283.2024001372768,231.80798770863709,236.58440592583605,380.60359403226965,281.7300392505816,117.31667301012585,173.77234108871644,176.71472452413036,277.3610411718909,270.5969647999853,247.93170273990341,303.0322489607435,166.67319068072553,54.43692342944089,292.4211526172994,184.36727304077027,251.07341484308333,273.73459765593066,243.65938102584545,220.70342213013865,244.6656733312731,192.5328981640514,264.7351290865631,264.7665122063091,189.40332330318296,274.84328878386816,198.63718439890687,233.05987947865898,202.03479316071926,132.32735438049346,174.78749183794676,233.92492137288318,173.79224756364457,314.1937081086058,168.64176006222624,283.6458184215402,259.6050134315082,236.99312894643873,263.32956920750524,162.55827878933738,229.0346673210687,279.02553825712044,278.03327293446847,270.1245011918152,258.8547804920848,157.92776868396646,151.0630683573652,160.98388128494548,194.7411659257811,165.3423072424977,185.7876203858098,145.27114755880052,189.0586012713657,186.9945615555682,265.25470938653234,190.09148736789,183.08376347930343,197.77185393671348,177.60078471842195,202.02219246962477,182.24796466713715,104.833879532478,229.83032781898035,172.9355578589275,264.97693291687557,198.10014879857445,175.50611085401783,178.79912561875284,157.90116091707358,222.7109522755087,211.21302815802952,188.66335824105852,255.13857714301162,141.52859477460444,179.6927198662717,241.60110600427333,191.30897821335728,204.85917756676525,170.00043543678623,188.0140777209265,124.56523124587476,139.54598234812556,172.116693785285,139.48354987483197,143.28198614060426,124.24509553932864,181.8373519055404,148.38371901574615,161.09562881489433,176.16781168462734,179.31289712379044,170.24447805376016,142.90749626027997,146.288432401819,164.58589287765682,132.5714479530547,162.5069627327556,154.43377655267847,159.91652921430457,80.28880738376884,941.6491661379464,955.0772936106979,1046.4594899403496,955.6351135357507,999.7646215755889,1014.8385215964687,874.7141116271529,1186.9138517390966,875.0072721584307,836.3131914695082,1364.519151732952,985.2257416143941,819.0181108223485,1036.7468841214068,865.9837944235783,1048.5431205988073,1171.5068681482758,647.2808092654577,1054.182012643383,755.1367906058579,1013.1523657644317,796.8854929185909,953.2679612568437,1028.8162169681714,981.8199436629781,787.8585250641117,971.0050410328693,638.8586015412737,1580.2098455726846,824.0281873485246,795.9973999200565,1049.8021555438618,896.7852696001584,671.7675934114928,760.8116977010087,711.2569510980721,695.1147193012289,755.8957709071542,802.8797735444269,709.3316431644458,816.0270304084323,692.1396799438389,838.3513984667175,491.01719978706365,651.4847562719025,767.5778074187645,561.4002232013673,506.5558987619015,828.0219588085478,589.7454632822788,711.8530592540056,553.2758241345102,722.8625636511388,990.8264911347198,728.7562582268304,1597.387001151649,1212.1426156659536,1063.628178416881,743.0348084033625,841.1940491418559,767.5885568415204,779.9930643205576,901.9969408746883,672.3729958300985,615.7060134373763,1416.1162902181034,1201.9175962565473,1245.5819839086555,1024.9912418515707,2535.037177090188,468.11546631419964,509.0158489031464,512.1869122079031,406.48648364166957,418.6171973936423,558.5360300961802,496.4068658896052,485.72163119732977,464.8452579358464,607.4129643405181,503.9007486713274,593.4268245550585,462.22150815707056,431.6723669711661,474.3020107607157,586.1386841301339,461.5473428670519,547.7560081729453,400.4506669767599,550.9950637783435,559.7037195106464,852.1702734062987,873.7844747335917,513.5396491775498,661.5230561440638,594.2905930423817,536.1717176343672,452.37341464603224,609.0838012670156,416.69490410050355,504.42642814132097,411.82599750546484,557.3325793883947,472.7216160250313,603.5288175785864,469.74064776788066,677.7038916049552,465.5908766298745,525.9489870493387,436.43377047473,163.7877505095158,184.52237715702918,131.48334336094962,169.85270298806148,194.77673350233465,154.5104983617652,184.40163844448134,166.5630998284649,158.25578914178595,131.24213750202233,210.77646824028227,233.3080130912911,176.17324211026332,155.5300236305752,131.12366833380435,148.10728067822382,186.04847262422734,162.7901116607152,170.8230144012602,218.10466067738355,166.7661601641652,203.34598281664273,197.2443927095777,170.1206696237297,115.38284595805281,194.23534457028487,171.00830423607707,166.8949128251384,189.1094087196215,184.2581447568946,137.9238730364406,141.11185207524568,109.83708019642532,183.1010759909311,150.5152776580007,201.3542146077478,167.67767659436515,173.89782195444735,121.03626112298689,192.69798007663775,181.13418607860447,141.5081831227655,173.46154368354476,138.02277887601355,174.18932118423822,138.26238109394683,141.44381440551595,137.2028807047465,174.10398080290014,92.816016777249,60.91798540499823,132.41510780661747,158.23485469278566,124.87593847663638,43.092838749038044
P10,13.476995587452716,54.233487244348964,49.530104264251726,43.55361227624905,40.083331595569454,49.73466193120053,57.8692988336483,81.43135766854101,100.15859843532589,121.32140863112915,118.24103819650213,125.84233545545666,102.8190604275425,62.126260977115045,102.60827265942642,113.09145196912029,117.66769535383867,133.65545215669832,124.16988777711917,135.655049224811,136.32793688318105,129.72751583117002,136.1853706331776,114.47699862364749,159.51621867489519,110.18438859526437,123.10103732752195,118.31705362215341,120.92390647262565,114.40351005500547,108.3604994894737,124.44528453520705,112.64655151754856,126.30805191894669,121.20642282675686,112.7782434916302,144.8640682814383,119.9105149566754,119.61337080574077,146.28145208095415,103.6384040879531,116.47063035911471,99.83660142004108,131.6572319429812,103.93816528567554,107.31556125821237,112.07483069660533,113.32357514245815,113.90241798024844,122.76469974104394,80.13057210676347,111.5775854682125,108.45554321911199,117.3486282297118,133.89074551140467,105.28478418469214,91.31404862750564,109.7314743791594,80.81386815927976,90.71278224645273,93.83994896243708,88.63016388195726,97.6148389985174,90.18616066513765,79.62809289608418,87.20152504450742,100.60772173368869,103.59156850934069,84.59854238038163,110.878393242261,118.99321162529723,115.2144602455875,100.88750409363475,86.1209571993567,100.52492592129143,89.71994073752963,104.31214582687517,103.32556036061776,107.03019441189484,99.51649726555586,101.90955599899544,81.69291816641103,102.78692374677493,89.73710861832153,108.8306384116651,115.0644248467129,88.41192213473964,102.61030097447731,86.69166129014053,100.89234336514019,83.35003917175695,103.0200794204732,81.9405558571491,96.2337591572431,106.56719909611364,94.7143717139427,94.72477843557218,101.4817193866488,91.25121261661246,104.69921147588612,89.76899221380714,120.47365261545177,96.92646188506134,80.8949480982356,108.34474228808651,81.14460627827827,92.07063276498876,88.0350103102079,97.23050457206207,96.64228320293333,120.20812715634415,104.51769355910557,113.81929265660747,119.3118914430805,125.36550852604408,89.4348748854087,104.03852301025199,106.52262233938744,109.63133014371896,112.53912920450071,114.65647058710839,97.48879370182816,106.5493456954202,115.71922138919766,111.79094934726122,84.73838936770231,101.66550500300923,108.18580477343106,108.59277045796853,119.33332140962425,103.76003235367129,120.70242615792317,139.64466969161109,118.3134519054875,125.1109859109616,139.90398575622072,113.74215639510628,89.78339131672837,117.43660593153916,112.78295995345042,116.20819837083165,132.06144085509646,144.53358642794137,131.19622621786993,106.03487669629965,111.68783064936245,117.3281927794853,101.37294032385337,113.88318385070751,115.13423812755867,111.08381380439165,125.74952808213696,84.34941538870137,115.47511834063114,108.01409729901962,93.95342589010755,100.03283449241991,111.87517789763055,114.82178555717114,87.92741194304082,105.61688576417338,103.39462442919765,126.20576848472626,136.26453151652012,106.66036360423126,57.48213588030309,39.68999665200605,66.66099139087872,52.24511587570339,48.850259848107335,62.82133167337815,46.388326753264735,58.94234982663313,43.82118550586896,41.116871213717936,44.348026902312746,52.85522050952942,50.25953380558592,62.245477968074574,38.58740655315169,58.43536514297366,47.48805035337481,47.50845711379112,45.24638851689404,36.02158758925698,44.19977046669278,36.399852202172895,39.998108032321376,48.88926150013648,39.786154750535374,72.32207477869672,49.1356782371949,53.36241954614063,51.808453279946285,45.30775733310772,50.60708466424382,47.127725419912544,44.657446224138745,54.973463719439636,58.450099524565736,57.3230616665478,50.9718231071708,64.33309240093402,51.34441174874305,42.17003175900057,76.96242103316811,46.73198899026522,60.567704569693134,54.87522010642138,45.87293733254624,62.372308285105305,58.95275539933475,51.42720977579422,57.75270145283642,51.4294616187915,53.072748478413196,55.174820679468844,55.84405582510008,50.3326874940782,55.41613043475709,84.22967572034885,84.15734390957121,108.58576641078906,85.95898424851318,69.63027575156676,75.24227289426028,89.77706817095114,87.83637192869823,53.27785404511361,74.24781719413278,62.096383103395176,82.2407350669486,36.87379083818806,67.04669920745772,37.492825488512175,60.08317128549786,45.97226523936051,44.62457876164669,46.431888064426154,46.582191661647826,57.75824493339958,44.007635987840644,58.3062521611535,61.89196428342658,53.44106404522602,45.59556411855662,43.11588680826545,68.85685562135349,71.07171994136868,57.444431228472354,50.54566025327551,54.46353548891484,58.640161840975935,70.49438665967392,92.03783741785912,57.22719791083417,55.02291678469691,72.47260971265271,45.276951679987924,50.315778150676174,40.30501737546103,35.44928160100902,42.32281445376224,24.2593772198885,32.83025093220494,19.72723730197369,23.51940672897385,30.117313546813826,27.450605114064484,25.82603110088466,31.973911798876305,35.42059845912773,40.598668102541694,40.173348103303965,44.68021555335683
P11,48.63383184782988,261.71459823931406,1386.4970378981511,4948.416886550752,4245.069935369029,4898.7506231727175,2251.3957436706046,2347.9766760172715,1979.1800851010585,1097.5403053779337,1215.7020466862255,1086.9831432279625,783.9689424000588,816.535651725546,995.0091716048421,805.922381393277,602.0786356841592,800.2325482453689,532.1051312176654,786.954059639809,624.7708237710457,558.3374872622262,559.0420197902786,617.4726032570562,460.17819136035604,466.12033235182173,396.7810789894697,528.2662866586652,465.5171877248829,396.0329573666572,417.91313553915785,373.0479680974147,344.8722802728577,293.1877430745164,332.16492081794087,419.54446361125304,324.35638056459305,327.7733395670853,321.89038681681126,411.9214428961558,333.81531401165006,349.3601684979641,296.90091781313544,320.091401174303,322.472209321152,427.33939411434824,310.01486641797504,302.7304425887255,422.1628756184309,302.4197641945698,380.77774795092756,335.291281155608,342.52678565648404,289.63038873131615,452.43898119955736,182.3171153276767,174.83455521641864,176.05474036347456,116.98876624476136,118.78252948170349,76.68249367195247,46.35917154352158,38.765525008028725,26.513194414432935,9.89220163343749,32.85580361764103,11.742353211957555,55.45840882485613,45.922827497557854,111.52505986190815,122.88678522918273,115.3464301536961,142.05861504409853,138.09137770723498,125.74594242343404,123.58635103793705,156.1342001086877,135.32227737151044,135.09071523587204,149.26242118867182,124.98349680886037,158.13260775345378,133.59464924893877,122.61845957210066,119.4043282982883,127.87091691137269,160.47058560987264,147.52896821479538,119.38602717343736,100.35018098416974,98.04807956770303,155.42433844083504,78.41386231471444,105.82404303413229,76.16994714502181,140.86581594863426,49.189637861826334,137.77810295335263,299.01795787297857,1149.628369970128,1250.7460300817916,971.211947656898,860.8407960585604,758.472350678684,430.5255662229379,375.7959503687177,171.33588932866292,132.4122403995418,129.696547229552,129.70591849794926,1643.644695366344,1515.4268894662127,1897.0692301552865,1722.1164660568695,1598.4453312915614,1980.0551002266357,1439.2709762261509,1549.0119780743744,1781.034793947324,1581.396873359639,1725.6065781559016,1872.8980554073707,1537.2855827425,1269.1557911241182,1851.17391475487,1623.6232383911715,2292.3779527578517,1651.4357498059662,2014.5964176301895,1685.2585069551747,1845.7366143452023,1565.3032449466016,1770.8352630010404,1391.1862918316729,1372.7524328055883,1676.3668063327154,1735.1255468308143,1104.3318006794223,1403.6310054943815,994.3932091389098,1160.1400356466058,1207.8145997381696,1114.2911868302913,1160.5379649572046,1072.7401220360898,1389.2906398288956,1404.903982146113,1268.5352014067998,1193.198223801947,1545.0456783591105,1259.1398198215975,1561.117398374653,1386.1813377336694,1556.8630694636545,1324.112960132585,1527.8838085300013,1602.0919106154495,1250.3777652956828,1413.4393332909137,1046.3910461121118,1678.3307937983157,1328.3469272158923,1565.4157630324837,1397.7034354256693,1509.3807036959327,880.686433853284,773.2501217922836,867.8239638257483,1252.0899732300588,811.3460312747618,1265.97342131497,1335.7666505367035,863.1622465953964,1134.8825188435626,983.6930919381377,1251.0256789429952,1023.4972774460987,1320.262049110636,853.5903907484836,1287.5204333388688,1286.2179050978054,1189.823914363212,1328.4998746259998,1142.4060934919264,906.7364643303412,1388.4432771450736,1316.8467653838372,1114.5347496151312,1490.8186021816082,980.7911690260648,1546.0889131643553,1192.6582715183577,1185.7055834426396,899.8639240336265,1245.5803310783917,1211.412617278662,1240.4745491249114,1192.6160757864125,824.9430335863455,1122.3010946065974,775.129347115307,1135.6548613430195,1277.5011326124095,676.8497004336313,354.38447351604094,329.88282011233593,369.8836941233411,430.22935379103876,401.03816357642734,364.00969476346415,474.0209797816699,408.23346871618617,426.633702957714,385.54969661981056,424.8870688642359,892.0837777611786,1008.6961811733831,944.8645817742806,1881.9303148781319,1452.7967266015144,466.8526120689631,570.9543803527391,688.0276361855557,571.4118393348398,726.3984418772491,1015.0390232660742,1230.8876263538586,692.885902505457,418.51686962757225,335.5780086346042,357.5266731621026,512.576072859067,327.4683473500173,364.61305812125744,205.03267364525055,220.1656645854993,196.95246281625447,247.46439702033555,535.6091104347443,493.0578170335817,350.27333762965026,515.7062995144582,520.9193633828479,544.356351307813,460.18658180259007,454.5795471390784,592.9126599916187,504.9039798905399,650.8114351004681,467.3936420961876,576.0354438023077,494.78825336694587,507.8433796487548,494.8055834664971,578.8607263201889,575.8091948931824,396.59174624968153,457.270760400062,404.3462314018552,410.2554959360166,383.9142481987518,457.38027300296284,421.843814295118,455.3625646247555,448.7118024376422,411.0047085951572,449.5646438889823,472.30524320095714,478.67917400115516,456.05740201022695,334.9448245516541,376.989212060808,449.3038687829476,403.3671220400402,455.27938648752854
P12,237.5758352953469,377.7507881759843,246.14770669890075,196.3041612256007,308.05699669390685,339.6777897308954,320.1210670024659,377.5139067665929,311.6982625443261,270.6631113400408,239.19183791916095,277.52734428352295,355.77540177630834,234.12709723072786,269.65542316832284,233.40179488316932,214.1921369241641,243.45351429071593,224.4224311457226,205.8802449236061,238.40611647994706,212.59088275577867,191.8090911249288,255.3941350343236,266.5341708378759,279.3680021909608,308.8829486684457,202.21919831577023,234.08677813627514,161.2715184540869,257.2029513913128,278.35786111333704,213.6861835166845,234.75716154363988,302.285929692573,240.95459107119342,268.4024996478174,214.75861496302963,275.4185594522591,252.95487569093635,236.13789231221946,282.96095726321937,201.57747549939748,244.0288760609264,243.1787178363156,255.56884522697592,404.67423136604464,511.18250579180545,460.2360698587426,195.1483208537907,192.39092772801368,251.34307036934626,946.1081451971687,391.8798685160398,530.851162669882,1332.5856317104056,1374.275716734449,1229.4576318747831,1294.731132433853,1454.9942164594777,1303.1733728147112,1233.918040398487,1155.87735895792,1209.1886400654753,1382.9823102673379,1376.338766548189,1163.9734163068467,1265.387747875184,1276.523298105314,1069.8070567486473,1195.9923731655588,1141.5871826529976,558.5424054185455,1259.828322554525,929.0155836966928,766.1647084615096,993.3562133840687,809.9965832939993,1161.9262546261668,882.4651088595155,1457.9774904898125,1202.37557003518,765.3472626105556,956.0775496069764,703.3871603198569,781.6941438958371,747.3603589327698,974.0624975143317,664.6609630617041,543.0268671264846,775.8594730017962,522.8769975703416,747.8782756932806,806.3259185069116,934.69769766136,1027.5985172934031,787.8864503719985,1183.2002219879412,930.3074623599064,1120.4888340621892,812.7208848124781,1113.2398833923173,1079.5457557144236,767.6346819094599,882.8025933213822,679.416601179897,861.6425996576195,693.6551928202405,540.8611210949168,850.4912500877944,2061.076679190036,1992.4364103038395,1994.2968241655246,1915.4736762598975,1584.592530272746,1916.030829725169,1957.1571424100632,2047.1040062256568,2028.5650109472233,1899.4296479065226,1923.4859409313788,2087.5809993342905,1979.09598903564,1788.4739018764906,1974.7380908064183,1856.020449852867,1933.4346867276179,1963.1035184540885,2054.9555467476976,1455.3418745378021,1989.4044188140908,1847.6175921987199,1902.2357503299797,2082.947977574007,1942.383273801706,1986.322000764226,2092.2938184240775,1819.722446285666,2027.3205998010428,1922.210565616598,1880.9152616579336,1987.452920167502,1859.2858671940178,1894.6565349046948,1451.5044278578357,1887.4882130489423,1912.3535693246936,1922.466022612646,1925.5173777735538,2125.991381102207,1631.2550886927977,1891.0267651746924,1815.2656030637613,1887.3841036127278,1845.6348928951684,1942.356448404661,1364.461335234275,1968.297640634299,1864.0844010359785,2072.389834225319,1936.106702900856,1942.3982542695528,1911.0927343906865,1867.6162556912207,1946.5851790488416,489.6174371670234,632.359168580963,793.0455525796955,578.1615068829827,717.3558181739921,682.2150113584445,662.35913193741,828.0426591285162,914.3811187808066,871.322995198697,637.4521848725683,791.655899109494,714.8815835597595,854.9785703673252,741.9299437950928,683.6799673731658,572.6444876964563,615.6092379358481,613.983610649925,531.8212108169623,749.9622123343381,831.095357826501,609.7250654051998,617.1926125209152,666.3762249529008,472.542611427731,609.5060178774465,775.8422065659921,477.64614896226004,542.2524952086244,451.0937677525356,723.3401831500062,512.1717968925956,632.9556277984871,426.63871777034876,677.8913065376881,480.21070331056586,647.0075367934052,588.4259267246723,655.353604391397,625.617318966624,485.84085130650504,647.8981882502948,722.2943724797242,632.2485122309581,554.9379924393805,703.1190332121388,594.5939073515034,829.212223810029,593.6514951806851,635.7402872271518,574.8799131200858,920.0313966757506,731.7174397683558,710.7686392057734,830.9577452537683,1050.0763792412858,820.0484986520435,1077.0001503787128,811.8163918096664,1165.9725779244045,808.429729336328,925.5636173233278,1094.8701717346833,844.8688791523379,1109.8949486864522,960.8190670386211,1042.0964278160914,1056.4580168064467,1121.9986930146854,790.1513508275704,713.0774927971893,809.8718933575332,785.2635299326092,818.6832105409368,833.7080964044972,798.5667222464554,1161.8647157771063,867.0553563811249,1382.108156607142,792.8197024004793,914.3956489547769,956.203806473859,973.6809026703663,926.1629752858894,1230.962617206116,1022.2708298445325,887.3988015076667,1347.168039338995,784.7970088581795,1062.6138311095242,1142.658910679378,714.8280065800466,903.7821912741309,1127.6826599785024,826.8681569813805,845.7543089243909,902.935065319797,1059.9597331014295,936.6987459213041,933.9196616259535,932.5956908288953,1335.9572127029842,755.9841260222507,768.3991889200463,799.7636476252442,1049.7282092652465,839.1805095896315,857.8229073458509,893.8840850226329
