,F01S01,F01S02,F01S03,F01S04,F01S05,F01S06,F01S07,F01S08,F01S09,F01S10,F01S11,F01S12,F01S13,F01S14,F01S15,F01S16,F01S17,F01S18,F01S19,F01S20,F01S21,F01S22,F01S23,F01S24,F01S25,F01S26,F01S27,F01S28,F01S29,F01S30,F01S31,F01S32,F01S33,F01S34,F01S35,F01S36,F01S37,F01S38,F01S39,F01S40,F01S41,F01S42,F01S43,F01S44,F01S45,F01S46,F01S47,F01S48,F01S49,F01S50,F01S51,F01S52,F01S53,F01S54,F01S55,F02S01,F02S02,F02S03,F02S04,F02S05,F02S06,F02S07,F02S08,F02S09,F02S10,F02S11,F02S12,F02S13,F02S14,F02S15,F02S16,F02S17,F02S18,F02S19,F02S20,F02S21,F02S22,F02S23,F02S24,F02S25,F02S26,F02S27,F02S28,F02S29,F02S30,F02S31,F02S32,F02S33,F02S34,F02S35,F02S36,F02S37,F02S38,F02S39,F02S40,F02S41,F02S42,F02S43,F02S44,F02S45,F02S46,F02S47,F02S48,F02S49,F02S50,F02S51,F02S52,F02S53,F02S54,F02S55,F03S01,F03S02,F03S03,F03S04,F03S05,F03S06,F03S07,F03S08,F03S09,F03S10,F03S11,F03S12,F03S13,F03S14,F03S15,F03S16,F03S17,F03S18,F03S19,F03S20,F03S21,F03S22,F03S23,F03S24,F03S25,F03S26,F03S27,F03S28,F03S29,F03S30,F03S31,F03S32,F03S33,F03S34,F03S35,F03S36,F03S37,F03S38,F03S39,F03S40,F03S41,F03S42,F03S43,F03S44,F03S45,F03S46,F03S47,F03S48,F03S49,F03S50,F03S51,F03S52,F03S53,F03S54,F03S55,F04S01,F04S02,F04S03,F04S04,F04S05,F04S06,F04S07,F04S08,F04S09,F04S10,F04S11,F04S12,F04S13,F04S14,F04S15,F04S16,F04S17,F04S18,F04S19,F04S20,F04S21,F04S22,F04S23,F04S24,F04S25,F04S26,F04S27,F04S28,F04S29,F04S30,F04S31,F04S32,F04S33,F04S34,F04S35,F04S36,F04S37,F04S38,F04S39,F04S40,F04S41,F04S42,F04S43,F04S44,F04S45,F04S46,F04S47,F04S48,F04S49,F04S50,F04S51,F04S52,F04S53,F04S54,F04S55,F05S01,F05S02,F05S03,F05S04,F05S05,F05S06,F05S07,F05S08,F05S09,F05S10,F05S11,F05S12,F05S13,F05S14,F05S15,F05S16,F05S17,F05S18,F05S19,F05S20,F05S21,F05S22,F05S23,F05S24,F05S25,F05S26,F05S27,F05S28,F05S29,F05S30,F05S31,F05S32,F05S33,F05S34,F05S35,F05S36,F05S37,F05S38,F05S39,F05S40,F05S41,F05S42,F05S43,F05S44,F05S45,F05S46,F05S47,F05S48,F05S49,F05S50,F05S51,F05S52,F05S53,F05S54,F05S55
P01,11229.5719844358,10923.018234531166,11119.554436560617,10414.053559166856,10923.170824750134,9883.955138475625,10187.075608453499,10224.689097428854,10513.694972152285,9896.467536430915,9975.127794308384,10495.689326314185,10724.040588998245,10529.106584267949,10151.445792324712,10953.612573434044,10513.77126726177,10643.701838712139,10568.932631418327,10069.962615396353,10746.471351186388,10474.021515220873,10580.987258716717,9965.209430075533,10500.19073777371,10783.169298847944,10454.261081864654,10373.083085374226,10920.119020370796,10765.163653009842,10300.450141145953,9777.8286411841,10501.335164415961,10599.832150759137,10431.982909895474,10931.1818112459,10443.274586099033,10321.736476691844,10516.136415655757,10673.380636301215,10675.05912870985,10803.540093080035,10608.377203021286,11026.016632333867,10277.79049362936,10336.461432822158,10216.754406042572,10267.94842450599,9971.541924162662,9753.871976806287,10580.987258716716,10152.056153200581,10496.528572518502,10199.664301518273,10073.929961089496,10213.778896772717,10701.915007248035,11585.48867017624,10396.81086442359,11170.290684367132,10609.97940032044,11439.07835507744,10398.184176394294,11526.283665217059,11137.102311741817,11431.525139238574,10391.851682307166,11060.425726710919,11236.20965896086,10695.048447394522,11542.91599908446,11314.64103150988,10865.491721980621,10371.786068513009,11577.859159227894,10176.928358892195,11317.235065232318,11325.780117494469,10825.284199282825,11068.818188754101,11499.656672007324,10497.520408941786,10921.873807888915,10830.319676508736,10617.151140611888,10184.71046005951,11110.093842984665,10210.95597772183,11303.65453574426,10327.916380560007,10200.27466239414,11354.390783550774,10422.369726100558,11333.9436942092,11358.739604791333,10648.279545281148,11284.733348592355,10466.086823834594,11250.095368886854,10389.410238803692,11299.687190051118,10464.94239719234,11302.12863355459,10329.28969253071,11519.26451514458,10460.74616617075,11027.466239414054,10476.615548943313,10947.737850003816,10591.058213168537,9472.495613031206,9120.851453421836,9336.537727931642,9611.657892729078,9169.604028381782,10110.399023422598,9733.11970702678,9227.740901808194,10219.882505531397,10188.143739986266,10137.712672617687,10190.890363927672,10214.160372320133,9440.146486610207,10028.305485618373,9181.124589913787,10112.382696269171,9283.207446402685,10029.907682917525,9725.719081406882,10428.625925078202,9423.208972304876,9981.918059052416,10084.840161745633,9524.834058136872,10259.479667353324,9900.053406576639,9174.715800717175,9494.010833905548,10013.885709925995,9419.31792172122,9849.46974898909,9328.755626764325,9982.22323949035,10112.077515831235,9539.711604486154,9752.727550164036,9287.479972533762,9603.341725795377,10501.564049744411,9342.717631799802,10137.407492179751,9525.368123903258,9843.060959792478,9359.044785229267,8972.686350804914,9709.391927977416,8295.414663920044,9660.181582360572,8874.952315556573,8840.390630960555,9018.081940947586,9647.66918440528,8871.442740520333,9854.505226215,9385.36659800107,9519.26451514458,9649.958037689785,9971.77080949111,9513.160906385901,9752.498664835584,9643.091477836271,9917.83016708629,9814.22140840772,9901.655603875792,9446.936751354238,9954.070344090944,9496.757457846954,9554.589150835433,9897.993438620586,9459.372854200046,9531.776913099871,9385.595483329518,9665.827420462349,9555.657282368202,9569.542992294195,9696.192874036775,9507.591363393607,9638.818951705198,9197.299153124284,9209.811551079576,9071.793698023957,9301.976043335622,9650.186923018235,9922.484168764782,9444.266422522316,9998.70298313878,9838.788433661402,9479.743648432137,9745.63210498207,9289.234760051882,9575.417715724423,9816.510261692227,9585.87014572366,9119.783321889066,9609.97940032044,9455.024032959487,8965.438315403982,9508.735790035858,9938.506141756314,9633.707179369803,9580.453192950332,9583.276112001222,9829.175249866485,9581.750209811553,9526.207370107575,9208.972304875257,9965.59090562295,9658.884565499351,9543.831540398261,10347.676813916229,9518.42526894026,10466.239414053558,9992.675669489587,9735.561150530251,9947.8141451133,9928.282597085527,10158.38864728771,10185.091935606928,10644.38849469749,9796.292057679104,9990.920881971466,10766.61326009003,9860.532539864194,10293.202105745022,10132.906080720228,9856.412603952087,10547.417410543985,9724.80354009308,9714.274814984361,10451.819638361181,9793.240253299766,9729.228656443123,9852.29266803998,10091.706721599146,9906.614785992218,9738.994430457009,8988.708323796445,9089.112687876706,9824.673838406958,9235.904478522927,9828.641184100099,9906.6910811017,10387.579156176089,10185.168230716412,10220.87434195468,9907.377737087054,9648.661020828566,10766.61326009003,9824.06347753109,10556.95429922942,10161.745632104983,9850.461585412377,10816.510261692227,9809.56740672923,9955.901426718548,9736.247806515603,10429.922941939421,9140.00152590219,10236.82001983673,9731.670099946594,10042.420080872816,9306.477454795147,9149.462119478141,8949.797817959869
P02,10155.718318455787,9785.458152132447,9980.849927519645,10054.474708171205,9741.283283741512,10173.95284962234,10081.712062256809,9208.972304875258,10280.460822461282,10056.53467612726,9808.04150453956,9896.009765774015,10064.087891966126,10132.14312962539,9679.102769512476,10062.485694666972,9797.51277943084,10238.193331807432,9953.078507667658,9801.098649576561,10234.378576333256,9659.189745937285,9963.988708323797,10137.788967727169,10113.527122911422,9773.250934615091,10011.59685664149,10044.403753719387,9879.835202563518,10019.607843137255,10130.693522545207,10047.226672770275,10097.886625467308,9648.5084306096,10151.140611886778,9974.1359578851,9961.089494163425,10097.581445029373,9984.817273212788,10226.596475165941,10082.856488899062,10188.830395971618,9782.63523308156,10144.960708018616,10074.92179751278,9960.860608834973,10018.61600671397,10166.323338673992,10225.528343633174,10212.405584802014,10046.463721675442,10086.518654154268,9871.5953307393,9761.730373083086,10157.167925535974,10181.353475242238,9966.811627374685,10418.020904859997,10314.946211947816,10104.600595101852,10149.004348821241,10254.444190127413,10356.06927595941,10118.028534370947,9998.70298313878,9934.004730296787,10176.012817578394,10070.34409094377,9993.362325474938,10204.089417868316,10084.9927519646,10393.759060044253,10247.806515602351,10038.071259632257,10568.017090104524,10606.546120393683,9887.235828183413,10162.203402761883,9977.87441824979,10669.260700389106,10069.581139848935,9980.392156862745,10422.598611429008,10068.284122987718,10122.377355611507,10228.198672465096,10050.507362478067,10141.75631342031,10342.336156252386,9963.60723277638,10158.846417944611,10127.4891279469,10298.23758297093,10292.97322041657,10283.588921950104,10173.95284962234,9890.592813000687,10335.317006179905,10450.064850843062,10128.633554589152,10357.9766536965,10548.943312733654,10128.557259479669,10604.867627985048,10158.312352178225,10080.643930724042,10728.542000457772,10320.515754940108,9994.659342336157,10147.02067597467,11690.852216372932,11568.932631418327,11648.5084306096,11715.266651407645,12112.84046692607,11983.978027008468,13025.406271458,11876.707103074694,11665.140764476997,11634.927901121539,11628.82429236286,11912.10803387503,11848.325322346838,11469.901579308767,11733.272297245747,11641.870756084536,13011.36797131304,11526.054779888611,11482.948043030441,11520.103761348899,11177.23353933013,11272.449835965515,11583.276112001222,11309.14778362707,12426.871137560083,11257.953765163653,11718.928816662852,11631.113145647363,11661.783779659725,11448.844129091325,13082.856488899062,11649.576562142367,11347.142748149845,11401.312275883116,11208.972304875257,11011.902037079424,11472.57190814069,12386.816205081255,11252.689402609292,11370.031280994888,12465.55275806821,11003.50957503624,11324.177920195316,11369.115739681087,11245.593957427329,11045.700770580606,10987.640192263676,11336.156252384222,11233.081559472039,11164.263370717938,10767.223620965897,11179.827573052567,11233.768215457389,11274.96757457847,11066.529335469597,11158.922713054093,10934.691386282138,10498.054474708171,11369.878690775922,10157.244220645458,11231.708247501336,10656.137941557947,11213.550011444266,10852.674143587396,10925.688563363088,11101.01472495613,10626.993209735256,11320.668345159076,10610.589761196308,11069.504844739453,10246.128023193716,11632.10498207065,10957.961394674603,11202.258335240711,10863.202868696117,11268.940260929277,10966.506446936752,11416.571297779812,11352.254520485236,11306.324864576181,11422.980086976426,11164.415960936905,11571.984435797665,11092.46967269398,11591.210803387505,11280.842298008698,10767.98657206073,11025.711451895933,11435.187304493782,10459.678034637978,10861.066605630578,10711.070420386053,11697.718776226446,10370.260166323338,11573.815518425268,10928.053711757078,10824.750133516442,10717.860685130083,10801.785305561914,10501.564049744413,11613.641565575646,10455.634393835357,10683.070115205617,11022.354467078661,10825.818265049209,11059.35759517815,10633.096818493936,11118.333714808883,10360.646982528418,10972.228580148012,10514.22903791867,10108.262760357062,10506.294346532388,10452.429999237049,10517.96749828336,10293.965056839857,10258.94560158694,10556.038757915616,10466.315709163044,10500.64850843061,10147.478446631572,10543.907835507744,10506.52323186084,10948.729686427101,10647.211413748379,10595.788509956514,10450.370031280996,10742.046234836349,10242.54215304799,10236.362249179827,10593.118181124592,10341.954680704966,10094.529640650035,10323.720149538414,10340.199893186847,10078.355077439537,10319.829098954757,10556.649118791485,10405.737392233157,10442.587930113681,10331.50225070573,10677.500572213321,10350.576028076603,10446.55527580682,10464.71351186389,10620.584420538644,10532.463569085223,10138.70450904097,10477.607385366598,10439.383535515375,10391.622796978714,10241.626611734187,10368.50537880522,10112.611581597619,10468.299382009614,10027.466239414054,10167.925535973147,10465.247577630276,10434.958419165334,10551.689936675059,10168.078126192111,10499.12260624094,10545.58632791638,10659.49492637522,10330.968184939346
P03,14642.633707179371,14853.971160448615,14844.510566872665,14893.797207598995,14769.893949797819,14878.538185702297,14676.585030899521,14785.076676585031,14837.491416800181,14737.23964293889,14728.54200045777,14764.095521477073,15905.241474021515,14583.04722667277,14898.75638971542,14793.774319066148,14924.467841611353,14912.10803387503,15922.636758983752,14784.237430380714,14947.585259784848,15962.31021591516,14803.768978408483,14635.614557106892,14819.104295414663,14727.931639581904,14609.063859006637,14904.249637598232,14537.422751201648,14787.67071030747,16109.483482108797,14806.744487678341,14719.539177538722,14744.640268558785,14794.384679942017,14734.721904325932,15059.128709849701,15895.323109788664,14879.148546578166,14730.449378194859,16396.505683985655,14384.145876249333,15132.066834515908,16047.379262989241,14875.33379110399,14868.238345922027,14785.458152132449,14755.70305943389,14753.26161593042,14593.270771343557,14528.953994048981,14586.633096818494,14588.387884336615,13455.329213397423,12189.593347066455,12980.621042191196,12549.858854047456,13104.219119554436,13118.562600137331,13059.433890287633,12522.621499961853,12981.9943541619,13212.100404364082,12634.851606012055,13038.452735179675,12798.504615854123,13285.572594796673,12537.422751201648,12910.505836575878,12822.690165560389,13155.718318455787,12593.575951781491,12956.816968032352,13026.398107881287,12414.358739604791,13073.16700999466,13118.181124589913,12470.283054856185,13009.460593575954,12736.476691844053,13022.735942626077,12832.37964446479,12869.153887235829,12682.30716411078,13206.988632028686,13176.012817578394,12599.755855649653,13171.663996337837,13042.4963759823,12536.35461966888,13087.357900358587,12690.547035934998,12939.192797741665,13134.96604867628,12861.829556725415,12665.67483024338,13345.159075303272,12589.761196307318,12923.247119859618,13040.05493247883,12883.115892271306,13420.309758144504,12819.94354161898,13308.842603189136,13463.035019455254,12771.496147096972,13087.739375906005,13528.496223392081,13301.670862897688,13303.044174868392,13997.78744182498,14143.96887159533,13770.733196002137,13645.304036011294,14133.82162203403,13930.189974822613,13942.931258106357,13751.583123521781,13739.223315785459,14063.477531090257,13757.228961623561,13895.475700007628,13981.765468833448,14075.455863279163,14391.622796978714,13850.766765850309,13960.402838178072,13851.300831616694,14126.420996414132,13785.839627679867,13786.907759212634,14001.29701686122,14626.611734187838,13846.265354390784,14096.971084153507,14160.753795681698,13995.422293430991,13765.08735790036,13869.764248111696,14037.994964522775,13810.48294804303,14481.727321278708,13932.47882810712,14060.044251163501,14007.705806057835,13968.337529564355,14178.835736629282,14118.715190356299,13807.58373388266,13982.375829709315,14320.210574502174,14058.823529411766,14248.493171587701,14063.630121309227,13358.510719462884,14270.542458228429,13860.608834973678,14078.812848096437,13871.442740520333,13809.79629205768,14044.785229266805,14467.307545586329,13679.40794995041,13673.30434119173,13844.586861982149,12536.202029449913,13293.81246662089,11328.908216983291,13394.598306248572,12466.163118944076,12286.640726329442,13476.920729381249,12478.141451132984,11065.079728389412,12342.107270923934,13279.392690928513,13263.675898374917,13442.35904478523,13291.065842679485,12456.62623025864,13563.591973754483,13518.959334706644,12163.729304951554,13267.94842450599,12390.402075226977,12465.247577630274,12334.32516975662,13342.717631799802,12119.783321889066,12508.964675364308,12094.300755321587,12346.837567711911,13529.564354924849,12421.606775005723,11534.14206149386,11371.023117418174,11293.659876401925,11225.909819180592,11377.431906614787,11388.03692683299,13198.06210421912,13165.941863126574,13635.461966887924,13522.163729304952,13393.682764934769,13659.49492637522,13414.587624933241,13167.544060425727,13468.223086900132,13235.523002975511,12472.266727702754,13264.744029907684,13279.316395819027,13532.234683756771,13241.168841077288,12012.89387350271,13440.985732814526,13109.941252765699,11356.679636835279,12481.11696040284,13491.111619745176,12990.615701533534,12818.875410086215,13395.513847562372,12960.708018616007,13166.552224002444,13374.990463111315,13327.30601968414,13763.332570382237,13001.602197299155,12964.522774090181,13365.606164644847,13415.503166247043,13050.507362478067,13061.722743572138,13259.250782024874,13084.992751964599,13159.761959258412,12756.923781185626,13656.748302433814,13193.102922102695,13194.094758525978,13665.598535133897,13526.359960326545,13836.804760814834,13113.984893568322,13648.355840390632,13600.442511635005,13097.73403524834,14001.678492408635,13122.529945830473,13240.482185091936,12480.811779964904,12863.355458915084,12947.127489127948,12751.0490577554,13599.22178988327,12972.228580148014,13249.179827573054,13130.846112764173,13946.593423361563,13665.293354695965,13434.195468070498,13473.563744563973,13876.935988403144,13499.656672007324,13055.466544594492,13457.46547646296,13168.91737239643,13859.845883878845,12933.318074311437,12587.39604791333,13417.486839093615,12466.315709163044,13339.13176165408
P04,11794.995040817883,11738.536659800106,12425.574120698864,11909.97177080949,11972.38117036698,11736.324101625087,12345.845731288624,11712.901503013658,12464.332036316473,12600.59510185397,11822.461280231939,11856.03112840467,12599.90844586862,11945.067521171892,12429.312581063554,12710.460059510187,11642.099641412984,11655.985351338979,11583.276112001222,11746.242465857938,12312.886243991761,12699.62615396353,12780.27008468757,11992.370489051653,12286.564431219958,11802.3193713283,12588.464179446099,11766.00289921416,11499.427786678874,12542.458228427558,11731.13603418021,12600.59510185397,12588.464179446099,12518.577859159228,12739.528496223393,11838.635843442436,12458.533607995727,12714.961470969713,12805.600061036088,12568.856336308843,14030.136568245976,11668.95551995117,13812.542915999084,12388.87617303731,11534.218356603342,11530.556191348136,12432.516975661862,12458.533607995729,12698.176546883346,12549.095902952624,12594.262607766843,11990.234225986114,12550.240329594873,11359.960326543069,10471.503776607919,10090.333409628445,10039.444571602962,10179.064621957732,9948.805981536585,9835.965514610514,9979.705500877393,10146.944380865189,10144.960708018618,9988.250553139544,9962.08133058671,10154.039826047152,9774.013885709926,9812.161440451668,9816.891737239644,9904.478522926682,10305.256733043412,10154.65018692302,10167.696650644695,9884.260318913559,9880.14038300145,10092.774853131914,10222.323949034868,10054.32211795224,10506.446936751356,9763.33257038224,10331.197070267797,10104.982070649272,10207.827878233005,10211.261158159763,9953.688868543526,10283.665217059588,10091.172655832761,9999.16075379568,10251.92645151446,10146.028839551385,10114.518959334706,10327.382314793622,10538.79606317235,10022.735942626077,9966.582742046236,10319.295033188373,10348.439765011062,10020.141908903639,10103.608758678569,10161.364156557565,10129.47280079347,10140.764476997025,10227.43572137026,10308.232242313268,10399.938963912413,10020.904859998474,10064.316777294574,10641.031509880217,9650.492103456168,9626.764324406806,8950.86594949264,9042.572671091784,9048.21850919356,8343.785763332571,9057.297627222095,9097.73403524834,8979.247730220493,8462.577248798352,8916.609445334554,8419.470511940184,8957.0458533608,9051.880674448768,9178.149080643932,8899.977111467157,9029.526207370107,8916.30426489662,9088.73121232929,9033.035782406349,9028.152895399406,9136.2630655375,9032.349126420997,9103.379873350119,8918.211642633709,9106.965743495843,9738.231479362174,9123.903257801176,9792.706187533378,9690.16556038758,9223.69726100557,9080.109864957656,8979.17143511101,9872.739757381552,8933.318074311439,9221.866178377966,9085.526817730984,9131.456473640039,9152.513923857481,9094.300755321583,9698.71061264973,8900.663767452506,9038.75791561761,9086.060883497368,9164.034485389488,9676.966506446937,9174.715800717175,9022.583352407111,9698.863202868697,9062.561989776455,8938.582436865798,9067.67376211185,9130.693522545205,9777.3708705272,8843.823910887313,9047.76073853666,9107.652399481194,11683.222705424583,12707.560845349813,12323.949034866866,12499.732967116808,12828.6411841001,12495.1552605478,12765.239948119328,12523.68963149462,12635.309376668956,11899.977111467155,12603.341725795377,12604.104676890212,11555.428397039752,12657.12977798123,12874.87602044709,11710.002288853284,12797.207598992905,12944.075684748608,12990.310521095598,12862.668802929733,11674.067292286565,12733.11970702678,12693.141069657435,12938.048371099412,12891.203173876555,11580.224307621884,11368.047608148318,9872.739757381552,9529.640650034333,9859.845883878845,9676.35614557107,9615.854123750669,9603.646906233313,9730.220492866407,9620.27924010071,9696.650644693676,9602.655069810025,12404.592965590906,11259.708552681774,11124.666208896011,12414.740215152211,12580.224307621882,13871.290150301365,12850.919356069277,13112.611581597619,13003.28068970779,14213.778896772717,12858.930342565043,13119.478141451133,12828.107118333715,13667.81109330892,12384.52735179675,12579.308766308079,11977.645532921339,11393.911650263219,10134.126802471961,10082.780193789578,10242.54215304799,9605.630579079881,10177.23353933013,10106.431677729457,10340.505073624781,11111.467154955368,10370.031280994888,10218.43289845121,10686.121919584955,10016.784924086365,10052.033264667734,10447.547112230106,10167.315175097276,10073.39589532311,10300.221255817503,10579.156176089115,10062.561989776455,10172.19806210422,10148.54657816434,10189.211871519037,10030.060273136492,9969.634546425576,10095.06370641642,10230.411230640117,9810.864423590448,10377.73708705272,10180.361638818951,10209.582665751126,10113.679713130388,10196.612497138933,9627.985046158541,10144.42664225223,10253.604943923096,10340.199893186847,9934.92027161059,9993.82009613184,10290.608072022584,10255.664911879148,10179.598687724118,10119.935912108034,10083.772030212864,10091.096360723277,10150.53025101091,10135.271229114216,10104.75318532082,10119.325551232167,10280.842298008698,10119.096665903715,10158.083466849774,10242.771038376442,10273.746852826735,9837.720302128635,9440.985732814528
P05,12298.008697642483,12218.43289845121,12394.750896467538,12497.97817959869,12167.849240863661,12358.052948805984,12279.011215381095,12359.884031433587,12397.87899595636,12368.200198367285,12254.749370565347,12035.70611123827,12232.166018158237,12334.935530632487,12111.314564736402,12239.795529106585,12343.785763332571,12308.69001297017,12170.901045243001,12160.296025024796,12148.699168383308,12336.995498588542,12287.785152971694,12348.516060120546,12125.658045319295,12302.891584649426,12630.807965209431,12069.504844739453,12241.550316624707,12248.950942244603,12238.498512245365,12504.8447394522,12165.789272907608,12007.705806057833,12327.53490501259,12281.147478446634,12149.385824368659,12287.479972533762,11828.946364538035,12407.644769970246,12425.421530479896,12411.841000991837,12339.436942092012,12245.441367208361,12365.148393987945,12316.929884794386,12218.814373998626,12197.37544823377,12028.305485618373,12104.066529335469,12283.054856183719,12726.634622720685,12262.607766842146,12353.322652018007,12183.184557869841,12301.594567788205,12187.685969329366,12699.549858854049,12644.083314259557,12464.789806973373,12580.224307621882,12302.433813992524,12228.809033340964,12601.89211871519,12583.733882658122,12316.472114137483,12616.006713969635,12595.178149080644,11974.441138323036,12494.392309452965,12330.968184939346,12417.639429312581,12382.848859388116,12279.926756694897,12448.233768215458,12690.775921263448,12365.529869535363,12640.726329442285,12342.183566033418,12564.58381017777,12604.562447547112,12439.612420843827,12454.032196536202,12664.911879148547,12690.16556038758,12769.283588921951,12413.519493400476,12598.916609445334,12390.249485008011,12487.602044708936,12347.829404135195,12563.973449301899,12721.29396505684,12676.81391622797,12480.354009308003,12803.2349126421,12254.596780346381,12735.027084763866,12527.046616311894,12528.267338063632,12550.545510032807,12411.535820553905,12292.744335088122,13035.324635690853,12250.85831998169,12714.73258564126,12660.410467689022,12667.353322652018,12759.288929579614,12822.156099794003,12429.388876173038,12467.917906462195,12664.225223163197,13344.090943770501,13278.858625162127,13367.132066834514,13292.89692530709,13047.455558098725,13204.318303196764,12752.956435492488,12137.712672617687,12785.381857022963,12496.0708018616,12469.214923323416,12534.142061493858,12504.15808346685,12254.901960784315,12931.6395819028,12806.286717021441,12817.273212787062,12709.01045243,12385.671778439002,12937.514305333028,12722.972457465477,12930.952925917449,12471.73266193637,12679.102769512476,13111.009384298468,13123.445487144276,13019.607843137255,12878.309300373847,13136.797131303883,12975.585564965286,12334.935530632487,12903.639276722362,13336.30884260319,12898.908979934386,12830.16708628977,12962.920576791028,13139.467460135806,13026.47440299077,13177.920195315482,12283.588921950104,12968.261234454872,13003.05180437934,13009.918364232853,12256.12268253605,12902.113374532693,13061.036087586786,12802.243076218816,13224.460212100406,12985.885404745557,12595.330739299612,13179.369802395668,13156.710154879072,13431.601434348058,12603.41802090486,13143.51110093843,13349.584191653315,12316.700999465935,11836.881055924316,13488.059815365836,13290.760662241551,12475.623712520028,11710.383764400704,11896.77271686885,12214.160372320133,13495.307850766767,12316.243228809035,12013.656824597543,13721.599145494774,12504.234378576333,13497.596704051271,12584.954604409857,12134.96604867628,13626.688029297322,12478.599221789884,13376.974135957887,12610.589761196308,13535.973144121463,12078.583962767987,11976.653696498055,13436.942092011903,12658.960860608837,13683.756771190967,13970.473792629893,12081.71206225681,13730.144197756923,12201.190203707942,13552.071412222478,13695.658808270391,12097.962920576792,13799.03868162051,12095.902952620738,13275.272755016405,12408.560311284047,12091.554131380179,13517.96749828336,13430.228122377357,12237.506675822082,13552.37659266041,12513.54238193332,13653.77279316396,13390.096894789043,12459.06767376211,13416.876478217746,12494.773785000383,13524.452582589456,13196.688792248418,12358.129243915464,12833.142595559624,13905.012588693065,12676.203555352102,13615.701533531701,13254.596780346383,12972.075989929046,12619.82146944381,13598.001068131534,13003.128099488824,13682.307164110782,13250.476844434274,12980.086976424813,12941.329060807202,13230.258640421149,13334.019989318685,13349.355306324866,13232.318608377203,13997.940032043945,12239.948119325552,13842.526894026094,13001.29701686122,13334.172579537651,12740.901808194096,14024.9485008011,13570.000762951095,12743.648432135502,13975.509269855804,13953.002212558176,13288.700694285497,13586.709391927978,13412.603952086673,13049.97329671168,13760.96742198825,13848.17273212787,13245.899137865264,13848.020141908904,13509.651331349662,13791.103990234227,13308.537422751202,13961.928740367743,13964.827954528117,13702.220187685969,13576.86732280461,13799.877927824828,13575.875486381323,14006.942854963,13146.410315098801,13770.58060578317,13526.588845654995,13687.495231555658,13233.386739909973,13832.60852979324,13808.88075074388,13710.231174181736,12664.759288929581
P06,11895.857175555047,12206.60715648127,11846.57053482872,12751.201647974365,12709.849698634318,12809.872587167163,12762.417029068438,13646.143282215611,13231.097886625468,12381.24666208896,12353.780422674909,12430.685893034259,13102.693217364767,12957.961394674603,12710.231174181736,12418.783855954835,12118.638895246815,11989.623865110247,12012.817578393226,12112.84046692607,12787.518120088502,12532.463569085221,12400.778210116732,11122.606240939956,11232.318608377203,11225.45204852369,11540.856031128405,12891.432059205006,12813.07698176547,12484.321355001146,13144.197756923782,13100.099183642329,12786.602578774702,11857.251850156405,12110.8567940795,12782.787823300525,13048.21850919356,12566.872663462273,13278.171969176776,12554.818036163882,11686.88487067979,12433.432516975661,13119.478141451133,13041.580834668497,13109.636072327765,12461.280231937133,13003.66216525521,12911.879148546579,13212.558175020982,13002.212558175022,13039.902342259862,12977.874418249792,13007.476920729381,13609.750514991989,12259.098191805906,10644.235904478524,9980.621042191196,10422.980086976426,10196.231021591517,10289.692530708782,10277.79049362936,10414.358739604791,10325.627527275501,10676.050965133134,10511.100938429849,10459.220263981078,10225.146868085758,10391.54650186923,10351.796749828336,10610.666056305792,10163.65300984207,10482.185091935607,10319.523918516823,10601.281757839322,10433.966582742047,10480.50659952697,10425.345235370414,10564.049744411384,10592.507820248722,9859.616998550391,10576.256961928742,10271.000228885328,10468.680857557032,10230.334935530633,10303.959716182195,10493.705653467612,10314.564736400396,10406.65293354696,10060.730907148853,10323.338673990998,10095.29259174487,10572.213321126117,10298.924238956282,10533.226520180056,10649.576562142367,10203.479056992448,10564.507515068284,10500.495918211644,10579.842832074464,10525.291828793775,10585.641260395209,10352.788586251623,10440.070191500727,10418.326085297933,10392.462043183034,10686.350804913405,10660.639353017472,10469.825284199283,10665.903715571832,10238.040741588464,8908.59845883879,8870.29831387808,8894.40756847486,9049.973296711682,9031.128404669262,8928.969253070878,8795.529106584268,8822.461280231937,8810.48294804303,9013.733119707027,8838.635843442436,8793.240253299764,8744.335088120852,8816.891737239643,8723.125047684443,8754.253452353705,8831.158922713053,8598.840314335852,8710.078583962768,8907.07255664912,8720.83619439994,8616.99855039292,8889.600976577402,8811.474784466316,8802.700846875716,8903.791866941328,8450.141145952544,8835.812924391546,8492.103456168461,8904.173342488746,8729.915312428473,8773.937590600442,8879.835202563516,8705.806057831693,8836.499580376898,9042.0386053254,8365.300984206913,8770.504310673685,8782.482642862593,8844.89204242008,8703.440909437704,8685.13008316167,8980.849927519645,8689.173723964293,8569.542992294195,8458.228427557795,8867.780575265126,8737.926298924238,8952.773327229726,8968.413824673838,8646.906233310445,8882.276646066988,8622.415503166249,8723.964293888763,8858.396276798658,9192.111085679408,9011.444266422524,9365.300984206913,9314.717326619364,9485.847257190813,9390.402075226979,9488.288700694286,9381.933318074312,9344.777599755856,8936.21728847181,9394.674601358054,9494.316014343482,9333.943694209203,9519.111924925612,9446.631570916305,9121.995880064089,9647.440299076829,9650.94987411307,9359.502555886167,9485.465781643397,9127.4891279469,9383.764400701915,9258.869306477456,10162.890058747234,9559.624628061341,9611.886778057527,9476.99702449073,9573.128862439919,9807.965209430076,9580.071717402914,9504.768444342717,9349.43160143435,9567.788204776076,9512.855725947968,9285.038529030287,9265.659571221484,9284.504463263904,9460.059510185398,9497.062638284886,9261.997405966278,9659.49492637522,9634.851606012055,9194.171053635462,9438.925764858472,9537.422751201648,9426.947432669567,9237.354085603114,9556.878004119935,9599.603265430687,9483.482108796827,9612.497138933393,9647.974364843216,9412.451361867705,9248.798352025635,9668.268863965819,10515.831235217822,10623.254749370566,10732.66193636988,10472.495613031206,10443.808651865415,10342.488746471352,10190.356298161289,10622.568093385213,10432.97474631876,10017.0901045243,10438.925764858473,10270.237277790493,10423.97192339971,10130.922407873655,10626.00137331197,10445.716029602503,10232.242313267721,10585.564965285725,10118.333714808881,10306.630045014115,10114.747844663158,10694.74326695659,9970.473792629893,10480.811779964904,10311.36034180209,10260.776684214543,10257.64858472572,10222.705424582284,10517.433432516977,10428.473334859234,10306.172274357214,10616.617074845502,10743.495841916534,10183.337148088807,10600.595101853973,10327.687495231556,10677.042801556421,10346.456092164493,10615.091172655833,10416.95277332723,10146.410315098801,10298.084992751965,10420.23346303502,10568.932631418327,10404.516670481422,10291.981383993287,10342.641336690318,10541.39009689479,10255.512321660182,10658.121614404517,10499.275196459908,10518.043793392844,10553.139543755246,10341.344319829099,10566.414892805373
P07,10849.088273441674,10823.60570687419,10766.079194323644,10617.45632104982,10821.85091935607,10645.68551155871,11084.916456855117,11119.554436560618,10925.307087815672,10886.01510643168,11422.598611429008,11979.781795986877,11410.39139391165,13307.6218814374,13126.87876707103,14214.618142977037,13632.639047837034,16895.93347066453,16130.006866559856,15838.483253223469,14173.647669184407,14569.771877622647,12321.889066910811,14044.937819485773,12710.154879072252,10545.510032806897,10804.684519722286,11863.965819790952,10986.41947051194,11355.99298084993,11257.41969939727,11695.048447394522,11392.156862745098,11022.430762188145,11868.543526359961,11559.166857404442,11992.52307927062,11888.91432059205,12111.696040283818,11535.057602807661,12079.72838941024,11989.852750438698,12353.704127565425,12843.366140230411,13369.420920119022,14456.931410696576,13661.097123674374,14615.777828641185,13564.507515068286,15727.321278706035,15616.769665064468,14247.119859617,14964.904249637599,14766.079194323644,15360.265506981003,12651.636530098422,14305.943389028766,13662.546730754559,13878.156710154879,12351.41527428092,13348.363469901582,13246.28061341268,11965.896086060886,11897.993438620582,12259.784847791256,13486.533913176167,12203.479056992448,13246.204318303198,12214.084077210651,12839.62767986572,12429.236285954072,11876.707103074692,10831.769283588921,11683.451590753033,11281.376363775082,11440.222781719693,11104.29541466392,11476.31036850538,11683.833066300449,11636.758983749143,12026.245517662319,11597.085526817731,11100.022888532847,12045.929655909058,11810.177767605099,11704.585336079957,10730.220492866407,11274.586099031052,9788.05218585489,10120.088502327002,10375.295643549249,11087.968261234455,10666.895551995116,10794.995040817885,10544.441901274127,10005.49324788281,9904.554818036164,10024.185549706264,9952.69703212024,9862.287327382315,10171.663996337835,9712.443732356756,9573.128862439919,10009.536888685436,9606.24093995575,11335.545891508355,10782.40634775311,11929.65590905623,11299.763485160602,12143.205920500495,14007.019150072481,13657.969024185551,13779.430838483253,12294.956893263141,15317.46395056077,12583.810177767606,13557.717250324255,13848.17273212787,13515.602349889374,13511.711299305714,13923.93377584497,13791.027695124743,13724.879835202564,13519.417105363547,13502.250705729763,11704.814221408407,13336.842908369574,13670.176241702906,13595.483329518578,12810.101472495613,13680.170901045243,12058.89982452125,13277.103837644008,12221.2558175021,13284.962233920805,12254.520485236897,13385.214007782102,12153.353170061799,13342.183566033418,12046.845197222858,11930.876630807965,13435.187304493784,12324.864576180667,11801.93789578088,13134.50827801938,11935.072861829556,11890.363927672237,11963.683527885863,12908.14068818189,12096.742198825057,12350.499732967117,13296.406500343328,12115.739681086443,13548.40924696727,13318.98985275044,13381.933318074312,12983.901731898986,12298.771648737316,13899.595635919739,13250.476844434274,13330.20523384451,13504.8447394522,13301.441977569237,13312.123292896926,11996.490424963758,10777.828641184102,11032.806897077899,10759.288929579614,10475.01335164416,10681.010147249563,10984.740978103304,10901.80819409476,10652.857251850157,10729.915312428475,10819.333180743115,10436.331731136033,10650.186923018235,11215.228503852904,10333.791103990236,11329.51857785916,10510.719462882429,10715.80071717403,10394.216830701153,10474.097810330359,10969.253070878158,10794.613565270467,10490.501258869306,10794.384679942017,11042.801556420232,10424.734874494547,10422.827496757458,10272.449835965515,10660.181582360572,10992.217898832685,9783.245593957428,11166.170748455024,10496.29968719005,10534.676127260243,10139.467460135806,10559.77721828031,10275.043869687954,10971.084153505763,10629.816128786144,10502.708476386662,10115.815976195925,11202.487220569164,10786.526283665218,10693.141069657435,11124.971389333945,10988.403143358511,11229.495689326315,10710.612649729152,11040.97047379263,11679.789425497827,10270.84763866636,11332.722972457468,11136.568245975433,11087.739375906005,11365.45357442588,10965.667200732434,11822.613870450905,11761.043717097735,11673.762111848631,11375.219348439765,11733.653772793165,11808.49927519646,11875.257495994507,12035.24834058137,11949.874113069352,11523.00297550927,11560.158693827727,11961.470969710843,11956.359197375448,11867.093919279774,12089.723048752576,11727.931639581902,12000.83924620432,12245.136186770429,11498.588540474557,11719.157701991302,12223.773556115055,12020.447089341575,11637.293049515527,11608.072022583354,11992.904554818037,11845.883878843368,12064.850843060962,11575.494010833907,11667.81109330892,11790.035858701456,11579.690241855498,11492.713817044329,11747.005416952772,11500.114442664226,11329.365987640193,11610.360875867857,11122.072175173573,11461.203936827651,11443.656061646449,11473.25856412604,11439.688715953307,10983.215075913635,11842.908369573512,11601.510643167772,11425.04005493248,11189.364461738001,11450.141145952544,11274.128328374152,11555.046921492332,11415.274280918595,11351.186388952468,11678.79758907454,10995.803768978409,11427.786678873883,10972.686350804915
P08,17651.178759441522,16682.536049439233,15559.166857404442,15847.943846799422,19884.946974898907,18940.33722438392,18976.653696498055,17136.64454108492,19994.888227664607,17960.70801861601,21137.254901960783,17558.25131609064,22141.52742809186,24299.07682917525,21484.321355001146,17584.80201419089,17713.43556878004,19239.185168230717,17633.707179369805,20100.480659189747,16370.870527199208,20112.230106050207,17897.993438620586,16891.813534752426,20340.886549172195,17013.80941481651,17288.77698939498,17501.64034485389,15949.416342412453,19863.050278477152,17968.337529564356,17714.42740520333,17253.68123903258,19598.153658350504,17767.6813916228,16913.939116502635,17682.612344548717,16079.423208972306,17788.281071183337,15696.650644693673,12241.779201953155,17020.065613794155,15129.091325246052,17178.149080643932,12995.498588540475,16261.310749980927,12101.625085831998,12923.323414969102,16878.919661249714,8680.09460593576,15509.040970473794,10039.902342259862,12965.285725185015,12935.835812924392,13544.44190127413,10238.879987792783,10740.062561989776,10595.559624628062,11003.738460364691,10174.105439841307,12279.316395819029,10855.954833295185,10034.332799267568,11232.166018158237,10669.489585717558,11562.829022659647,12424.353398947129,12433.127336537727,11248.264286259251,12006.027313649196,11903.410391393913,10113.527122911422,11357.213702601664,12137.712672617687,11780.956740672924,12178.301670862897,12308.232242313268,10702.220187685969,12777.752346074616,12026.169222552835,11087.739375906005,11545.586327916382,12402.075226977951,10602.121004043642,10873.96047913329,10584.191653315023,10813.76363775082,10308.46112764172,11508.278019378959,12344.62500953689,10840.543221179523,11169.985503929198,11950.331883726254,10478.370336461434,11495.689326314183,10471.503776607919,11220.18768596933,11851.91119249256,11598.840314335852,12201.419089036393,12716.48737315938,11199.740596627757,12417.715724422065,11458.686198214697,10422.827496757458,11055.313954375526,12016.098268101015,12695.35362783246,11381.170366979477,10573.968108644236,23240.558480201416,17460.669871061265,24137.865262836654,23999.771114671552,25000.152590218968,24592.355230029756,22826.047150377664,24433.7376974136,19394.979781795988,21199.20653086137,20698.71061264973,23644.235904478523,21725.413900968946,22532.082093537803,22622.339208056765,25737.544823376822,21013.885709926,20672.38879987793,19602.34988937209,22004.88288700694,24962.996871900512,20578.698405432213,15972.38117036698,20226.67277027543,26341.11543450065,26079.346913862824,21951.018539711607,22911.421377889677,22622.26291294728,19379.873350118258,18340.657663843747,20251.31609063859,23767.757686732282,22071.335927367054,17801.8616006714,23146.79179064622,19455.93957427329,20079.499504081792,22040.436408026246,16943.00755321584,22233.386739909973,23616.388189517056,22835.5840390631,21710.53635461967,18041.962310215917,18530.861371786068,20208.972304875257,15046.768902113377,19710.536354619668,22204.470893415735,22818.417639429317,25180.590524147403,21534.59983215076,23559.014267185477,19673.30434119173,17606.393530174715,21969.787136644543,19316.700999465935,16033.49355306325,21269.779507133593,19270.08468757153,17011.291676203557,17819.48577096208,25779.430838483255,19466.46829938201,25047.37926298925,22696.42175936523,22170.443274586098,22159.609369039445,19289.38735027085,19403.448538948654,19787.13664454109,20357.9766536965,19649.958037689787,16021.820401312278,17186.923018234535,20348.973830777446,13634.08865491722,19529.56435492485,13883.42107270924,20654.91721980621,19126.344701304646,20877.775234607463,20681.010147249563,20692.30182345312,16225.375753414206,22279.240100709547,19932.70771343557,20402.761882963307,19836.27069504845,20020.218204013123,15950.02670328832,19693.293659876406,22022.04928664073,19908.979934386207,16075.226977950715,17900.05340657664,22385.671778439006,23152.513923857485,20300.75532158389,23796.21576256962,20720.302128633557,21494.08712901503,20434.958419165334,25071.259632257574,24283.588921950104,25108.491645685514,28168.53589684901,27847.40978103304,22780.04119935912,9867.62798504616,10561.150530251012,9250.476844434274,9843.36614023041,9226.29129472801,9766.079194323644,9296.940566109712,9353.62783245594,9979.476615548945,9819.94354161898,9885.328450446326,9834.668497749295,9864.57618066682,9267.490653849087,9958.266575112535,9871.061264972916,9186.846723125049,9990.15793087663,9180.971999694819,9331.197070267797,9800.717174029145,9822.537575341423,9980.46845197223,10495.765621423667,12443.04570077058,11551.461051346609,10812.390325780118,11666.742961776152,12109.636072327765,12341.725795376518,9943.007553215839,12444.647898069734,11682.154573891814,14007.858396276799,10178.301670862898,11057.679102769514,12562.066071564812,16058.51834897383,10207.44640268559,12679.255359731444,17990.463111314566,11917.296101319906,12622.415503166249,12809.79629205768,12773.861295490959,13551.613641565576,12735.637445639735,12711.757076371405,12115.587090867477,14305.485618371862,12540.398260471506,10712.214847028306,12729.839017318991,12367.895017929352,12834.210727092395
P09,8003.8910505836575,7792.019531548028,8249.637598229954,7921.9501029983985,7784.771496147097,8257.343404287785,8451.285572594797,8098.496986343175,7844.510566872663,8175.783932249943,8205.004959182117,7866.941329060807,7745.174334325171,8162.203402761883,8130.693522545205,7541.466392004273,7646.372167544061,7868.08575570306,8385.36659800107,8094.7585259784855,8121.461814297704,8129.549095902953,8058.747234302283,7467.689021133745,8206.683451590754,7833.90554665446,7983.443961242085,8030.060273136492,8073.777370870528,8018.463416495003,8158.159761959259,7872.6634622720685,8085.9082932784,8013.504234378577,7720.912489509423,8100.480659189747,7741.054398413062,7916.914625772488,7693.369954985886,7616.845960173953,7759.670405127032,8035.782406347754,7631.418326085298,7754.711223010606,7813.9162279697875,8077.515831235218,7921.034561684597,8083.237964446479,8119.096665903716,7805.676356145571,7966.735332265202,8066.071564812696,8048.142214084078,7998.550392919814,7944.304570077059,7889.829861905852,7867.322804608226,7727.4738689250025,8808.27038986801,7878.538185702297,8297.856107423515,8487.220569161516,8267.185473411155,8232.01342793927,8483.55840390631,8322.194247348745,8307.011520561533,8355.61150530251,8134.126802471961,8207.980468451973,8318.226901655604,7097.657740138857,8573.58663309682,8005.645838101778,9148.31769283589,8369.954985885406,7944.304570077059,8358.815899900816,8284.80964370184,8086.213473716335,8726.405737392233,8103.685053788053,8524.681467917908,7835.355153734647,8122.148470283055,8689.631494621195,8249.256122682536,8052.491035324636,8035.47722590982,8105.897611963073,7764.019226367591,7739.452201113908,8323.796444647898,7820.859082932784,8124.132143129626,7537.346456092165,8240.177004654002,7547.341115434501,7950.713359273672,8329.137102311743,7921.339742122531,8069.199664301518,7714.808880750745,7863.889524681468,7496.299687190051,7624.246585793851,7783.932249942778,7627.603570611123,7974.975204089418,7340.657663843747,9660.79194323644,9073.014419775693,9637.216754406043,9386.205844205386,9425.421530479896,9416.723887998778,9248.722056916153,9129.091325246052,9131.609063859009,8887.541008621349,9188.448920424202,9290.608072022584,8970.321202410925,9327.76379034104,9379.72075989929,8851.529716945144,8857.633325703824,8546.578164339666,9519.722285801481,8671.244373235677,9598.535133897916,9296.482795452812,9162.966353856718,8766.613260090027,9313.649195086597,9340.581368734263,9360.341802090486,8443.808651865416,8981.15510795758,8634.088654917221,9322.652018005647,8828.641184100099,8865.262836652171,8587.014572365912,9155.260547798887,8709.4682230869,8785.839627679867,9136.186770428016,8901.045242999924,8744.106202792402,9048.59998474098,8448.310063324941,9316.395819028,8418.173495078967,8851.071946288244,8981.689173723964,8728.69459067674,8521.934843976502,8691.538872358284,8661.783779659725,8547.646295872435,8671.473258564127,8823.529411764706,9195.468070496681,8575.57030594339,10177.386129549097,10251.468680857557,10432.51697566186,9291.142137788967,9242.694743266957,9132.98237582971,9097.50514991989,9085.9082932784,9137.560082398719,9264.744029907684,8550.774395361259,9097.962920576792,8326.695658808268,8725.261310749982,8408.331425955595,7991.45494773785,8278.70603494316,8172.274357213702,8229.343099107347,7927.138170443275,8241.85549706264,8260.013733119707,7934.157320515756,8183.260852979324,8248.340581368735,8266.117341878386,8616.388189517053,8037.68978408484,7994.888227664606,8177.767605096514,8338.597695887694,7988.3268482490275,8390.783550774395,7834.287022201876,8317.08247501335,8082.475013351645,8249.027237354087,8337.834744792859,8200.50354772259,8144.655527580682,8415.045395590143,8063.32494087129,8076.2951094834825,8600.213626306555,8132.372014953842,8194.171053635462,8110.8567940795,8439.30724040589,8256.427862973984,8494.010833905548,7988.3268482490275,8895.323109788664,8174.639505607691,8251.239795529107,8270.084687571527,8016.0982681010155,7877.012283512628,7904.173342488746,8039.826047150378,8132.143129625392,7814.984359502556,7812.771801327535,8026.8558785381865,7892.881666285191,7603.875791561761,7989.318684672314,8004.043640802625,8042.191195544366,8014.5723659113455,7729.686427100023,7976.577401388572,8157.244220645457,7957.808804455635,7843.2898451209285,8029.144731822691,7986.8772411688415,8039.139391165027,7989.9290455481805,7975.9670405127035,7824.521248187992,7936.217288471809,8192.874036774243,8151.8272678721305,8047.531853208209,8233.99710078584,7981.918059052415,8087.739375906005,7970.702677958343,8254.36789501793,8048.82887006943,8121.232928969254,7919.12718394751,8119.40184634165,7870.450904097048,8166.857404440375,8026.855878538186,8009.231708247502,8012.9701686121925,7842.374303807126,8022.4307621881435,8004.730296787977,8232.394903486686,7900.3585870145735,8262.836652170596,8009.155413138018,7729.610131990539,7849.5460440985735,7817.27321278706,8191.805905241476,8032.730601968414
P10,11513.54238193332,11503.166247043566,12138.551918822004,12437.399862668804,12092.393377584498,11978.33218890669,12006.713969634548,12506.752117189288,12316.014343480583,12626.306553749906,12333.333333333334,12863.889524681468,12700.389105058366,12657.892729076066,12831.92187380789,12959.334706645304,12236.820019836729,12689.555199511713,12714.961470969713,12885.557335774778,12772.182803082324,12665.67483024338,13194.857709620814,12625.696192874037,12614.862287327382,12913.328755626766,12779.507133592739,13055.924315251392,13085.984588387884,12824.216067750058,13125.12397955291,13105.745021744107,12674.982833600367,12798.886091401542,12796.44464789807,13005.340657663844,12806.897077897309,12857.55703059434,12719.462882429238,12729.686427100023,13009.689478904402,13110.8567940795,12938.735027084766,12952.46814679179,13114.595254444192,12587.319752803845,12882.810711833372,12597.085526817731,12847.180895704587,13432.28809033341,12519.798580910963,12675.288014038302,13179.2172121767,13326.84824902724,12861.448081177998,12652.628366521705,12462.806134126804,12955.06218051423,12584.725719081407,12713.359273670558,12454.261081864654,12593.270771343557,12855.725947966737,12679.789425497827,12535.362783245595,13041.199359121081,12323.796444647898,12858.930342565043,12456.855115587092,12958.419165331505,12632.867933165486,12901.884489204243,12655.909056229495,12797.360189211871,12949.187457084001,12380.178530556192,13175.783932249944,12885.786221103228,12883.497367818723,12408.789196612499,12723.125047684443,12543.14488441291,12761.730373083086,12795.986877241168,12808.270389868012,13044.098573281452,12697.413595788512,12946.28824292363,12441.443503471428,12995.040817883575,12709.697108415352,12809.491111619745,12642.710002288854,13133.974212252997,12822.461280231939,13163.805600061038,12476.157778286413,12835.88921950103,12573.2051575494,13008.54505226215,12515.602349889372,12908.36957351034,12526.131074998093,12525.139238574808,13155.718318455787,12552.986953536278,12429.083695735104,12575.799191271839,13164.797436484321,12516.899366750591,8225.375753414208,8253.757534142062,8115.815976195927,7898.908979934387,8239.566643778135,7869.001297016863,8293.202105745022,7882.581826504922,7954.222934309911,8057.7553978789965,8013.427939269092,8149.385824368658,8169.832913710232,8086.51865415427,8194.476234073396,7978.866254673076,8158.007171740292,7958.037689784085,7942.702372777905,8133.134966048677,8161.821927214466,7927.290760662243,8021.057450217441,8109.941252765698,8209.353780422676,8397.573815518426,7965.362020294499,7940.413519493401,8124.742504005494,8217.975127794309,8157.625696192874,8064.011596856642,8300.60273136492,7968.947890440224,8228.198672465096,8186.617837796597,8124.666208896011,8156.939040207522,8177.538719768063,7962.31021591516,7959.639887083238,7950.026703288319,7650.94987411307,8192.721446555277,7831.616693369955,7873.044937819486,8022.583352407111,7849.69863431754,8212.634470130464,7601.0528725108725,7948.577096208133,7971.923399710079,7991.302357518884,7949.263752193485,7940.4898146028845,7102.006561379417,7173.952849622339,7221.866178377966,7304.264896620127,7229.419394216831,7109.254596780346,7122.301060502023,7358.8921950103,7112.764171816587,7099.259937438011,7097.962920576792,7129.091325246052,7140.535591668574,7069.886320286871,6972.304875257496,7083.390554665447,7220.645456626231,7085.831998168917,7197.680628671702,6909.666590371557,7075.989929045549,7168.68848706798,7054.932478828107,7199.81689173724,6972.38117036698,7306.019684138247,6960.326543068591,7079.728389410239,7114.824139772641,7106.813153276876,7244.29694056611,6995.651178759442,7125.581750209812,7116.273746852827,7049.668116273747,7317.463950560769,7032.730601968415,7209.811551079576,7163.347829404135,7033.49355306325,7360.2655069810025,7138.857099259937,7173.5713740749225,7110.780498970016,7371.633478294041,7181.124589913787,7051.6517891203175,7234.683756771192,7086.060883497368,7223.239490348669,7262.302586404212,7171.282520790417,7110.475318532082,7036.545357442588,7017.318989852751,7201.190203707942,7129.777981231404,7018.158236057069,7081.406881818876,6985.046158541238,7060.807202258336,7042.4200808728165,7109.864957656215,6924.696726939803,6845.807583733883,7072.251468680857,7024.643320363165,6733.958953231098,6914.3205920500495,6653.009842069124,6907.911802853438,6817.578393224994,6776.607919432365,6789.2729076066225,6626.916914625773,7094.987411306935,6750.591287098498,6904.859998474099,6841.992828259708,6801.403830014497,6831.235217822538,6771.03837644007,7074.616617074846,6827.038986800946,7068.284122987718,6928.1300068665605,7081.559472037843,6979.781795986877,7026.321812771801,7061.11238269627,6885.709925993744,6889.6009765774015,7248.416876478218,6912.336919203479,6832.4559395742735,6551.7662317845425,6555.352101930266,6722.8961623559935,6700.083924620432,6791.103990234225,6449.988555733578,6632.181277180133,6719.996948195621,6690.62333104448,6736.095216296636,6709.0867475394825,6828.259708552682,6725.185015640497,6832.15075913634,6872.816052491036
P11,7324.940871290151,9039.749752040894,14303.578240634775,22286.640726329446,24648.203250171664,23578.088044556345,20282.063019760433,19116.426337071793,16841.61135271229,13801.098649576565,14854.27634088655,13429.770351720455,12613.94674601358,12109.788662546733,13102.388036926834,12468.90974288548,11816.662851911193,12375.600823987184,10641.641870756086,11570.077058060579,11656.67200732433,10897.306782635234,10804.913405050738,10959.105821316854,10811.703669794766,10228.427557793544,10202.944991226064,10527.351796749828,10508.888380254826,10337.376974135957,10454.489967193103,10015.10643167773,9377.660791943235,9563.74456397345,9384.603646906233,10172.503242542152,9699.855039291982,9932.555123216604,10067.06340123598,9972.38117036698,9606.469825284199,9697.795071335928,9207.293812466622,9852.75043869688,9957.732509346151,10183.489738307773,9608.224612802322,9543.75524528878,10173.876554512855,9568.322270542458,9904.936293583582,9689.173723964295,9883.42107270924,9500.87739375906,9876.40192263676,8659.49492637522,8648.203250171664,8765.926604104678,8112.535286488137,7935.225452048524,7415.350576028077,6940.337224383918,7103.303578240636,7054.7798886091405,6725.9479667353335,6863.2028686961185,6746.70023651484,7105.745021744106,6969.100480659191,7638.2085908293275,8190.356298161288,8089.723048752575,7998.474097810331,8128.404669260701,7999.1607537956825,8046.921492332342,8612.115663385975,8354.238193331808,8019.684138246739,8710.383764400702,7971.236743724727,8553.826199740597,8268.940260929274,8020.981155107958,7959.25841153582,7984.512092774854,8424.505989166093,8140.764476997025,8054.016937514305,7939.269092851148,7716.258487830931,8385.82436865797,7611.429007400626,8101.091020065614,7514.610513466087,8127.2602426184485,7128.480964370185,8387.80804150454,10268.63508049134,13775.61608300908,14819.714656290533,14122.91142137789,14719.08140688182,12173.113603418022,10594.64408331426,10351.110093842984,8423.819333180743,8352.178225375756,8242.77103837644,8154.421301594568,17806.13412680247,17010.833905546657,19438.391699092088,19004.730296787977,16881.284809643705,18744.335088120853,17663.462272068362,18435.645075150685,18011.978332188908,17749.29427023728,17990.3105210956,18121.461814297705,18469.901579308767,16355.230029755094,19107.652399481194,17603.265430685897,19260.776684214543,18363.088426031893,17555.352101930268,18517.814908064396,19023.193713282977,17280.61341268025,17306.553749904633,17140.077821011673,16130.312046997788,14688.18188754101,17953.841458762494,14409.933623254748,16718.013275349054,14039.291981383994,14954.451819638361,15655.98535133898,15173.876554512855,15633.478294041353,14755.931944762342,15592.965590905624,16680.78126192111,16336.385137712674,15522.54520485237,17309.529259174487,15937.590600442514,17224.53650720989,15243.610284580758,16940.4135194934,16428.015564202335,17110.246433203632,17538.49088273442,15767.376211184863,16213.473716334785,14597.6958876936,18518.577859159228,17132.372014953842,18467.30754558633,16333.867399099718,18242.389562829023,11888.6854352636,12147.936217288472,12344.701304646374,13744.869153887235,11722.896162355992,13502.250705729763,13150.91172655833,12400.854505226216,12992.904554818037,12032.959487296865,13441.06202792401,13041.962310215917,13225.604638742658,11896.086060883497,13738.918135347525,13208.59082932784,13964.065003433281,13700.00762951095,13096.971084153505,12182.803082322425,13585.107194628825,13321.58388647288,13082.246128023195,13793.16395819028,12371.023117418174,13669.413290608072,13142.595559624628,12629.892423895628,12499.732967116808,14082.62760357061,13207.675288014038,13520.256351567865,13664.606698710613,12158.617532616161,12662.165255207143,11217.059586480507,13032.120241092547,12885.328450446326,11019.073777370872,10030.060273136492,9551.384756237127,9815.365835049974,10349.813076981765,9953.765163653012,9812.542915999085,10314.259555962464,9372.47272449836,10027.771419851988,9499.12260624094,10127.71801327535,12643.549248493173,12265.049210345616,12150.98802166781,14912.565804531929,13747.844663157091,10821.545738918136,11174.563210498207,12225.375753414206,11905.317769130997,13077.821011673152,12655.069810025178,14599.679560540171,11191.119249256124,10312.962539101243,9789.806973373008,9624.856946669719,10906.767376211184,9589.15083543145,9393.530174715801,8319.600213626307,8401.15968566415,8262.912947280081,8764.400701915007,10526.970321202412,10849.46974898909,9930.189974822613,11059.35759517815,10622.873273823148,11698.405432211795,10843.823910887313,10709.163042648966,10934.004730296789,10584.496833752957,11816.281376363775,10564.812695506218,11437.628747997254,11497.825589379721,10725.413900968948,10923.55230029755,11532.387273975739,10837.796597238117,10328.984512092775,10503.013656824598,10608.22461280232,10910.81101701381,9932.555123216604,10446.707866025787,10272.75501640345,9959.563591973754,10680.09460593576,10598.6114290074,10673.685816739147,11137.102311741819,11029.068436713205,10949.6452277409,9697.108415350576,9670.405127031358,10538.033112077515,10518.043793392844,10687.418936446174
P12,9108.949416342413,10044.25116350042,9006.637674525064,9377.431906614787,9498.359655146105,9646.143282215611,9281.147478446632,9491.035324635692,9421.530479896239,9463.035019455254,9480.430304417489,9193.408102540627,9406.65293354696,9338.139925230793,9222.400244144352,8983.672846570535,8769.28358892195,8890.592813000687,8972.762645914398,8957.198443579768,8915.312428473335,8487.373159380484,9062.027924010072,8768.520637827114,9096.971084153507,8840.619516289007,8981.918059052414,8864.881361104754,8752.956435492484,8910.124361028458,8970.39749752041,8943.92309452964,9125.12397955291,8848.096437018386,9434.729533836882,8950.179293507288,9154.573891813536,8985.351338979173,8947.661554894332,9082.322423132679,8926.909285114823,9045.319295033189,8864.728770885788,8836.346990157932,9387.045090409705,9209.506370641644,9371.633478294041,10161.974517433433,9731.59380483711,8579.232471198597,8817.425803006026,9101.472495613032,11277.027542534524,9761.34889753567,10266.19363698787,13212.634470130466,13146.028839551385,13297.398336766615,12997.55855649653,13953.841458762494,12834.28702220188,13077.515831235218,13711.757076371407,13212.32928969253,13375.906004425118,13271.839475089648,13742.275120164799,13391.165026321814,13134.584573128863,12255.283436331732,12385.59548332952,11458.533607995727,11098.11551079576,12824.979018844893,12808.575570305944,11686.808575570307,12397.268635080492,11999.923704890516,13067.9026474403,11470.511940184635,12936.827649347677,12343.099107347221,11764.324406805525,11544.823376821547,11412.756542305639,12335.393301289389,10910.81101701381,12125.658045319295,11956.130312046998,10732.814526588845,11571.984435797665,10605.020218204014,11224.917982757306,12208.209353780425,12157.854581521326,12766.536964980545,12195.544365606165,12474.250400549325,12107.042038605327,13300.297550926985,11654.077973601894,12774.54795147631,13551.689936675059,10998.245212481881,12262.073701075762,11749.752040894178,12319.295033188373,10827.420462348366,10286.869611657894,11828.87006942855,17561.532005798428,17961.470969710845,17280.155642023346,17743.11436636912,15286.030365453575,17562.829022659647,17944.533455405508,17324.02532997635,17343.022812237738,17704.280155642024,17583.199816891738,17632.56275272755,17469.443808651864,17470.893415732055,17973.44930189975,17121.080338750286,17277.866788738844,17357.9766536965,17964.217593652247,15348.744945448998,17197.375448233768,17024.4907301442,17276.340886549173,17292.21026932174,17370.94682230869,17158.159761959258,17374.68528267338,17209.735255970096,17298.8479438468,16917.906462195773,17838.941023880372,17262.836652170598,17290.608072022584,17042.801556420232,15165.178912031739,17611.581597619595,17198.596169985503,17086.594949263752,17249.332417792022,17178.83573662928,15042.72526131075,16928.81666285191,17645.609216449226,17099.412527656976,16794.689860379953,17434.729533836882,15007.248035400931,17685.35896849012,16738.078889143202,17101.091020065614,17181.429770351722,17108.567940794997,17474.479285877776,17572.594796673533,16705.42458228428,10853.894865339133,11358.129243915464,11893.26314183261,10837.033646143282,11437.247272449837,11698.405432211797,11129.854276340888,12124.742504005493,12139.08598458839,11879.606317235064,11788.891432059205,12073.090714885177,11569.314106965743,12495.84191653315,11802.7771419852,11403.37224383917,10983.13878080415,11286.640726329442,11220.18768596933,11358.20553902495,11621.194781414513,11722.209506370644,11341.115434500649,11405.279621576257,11461.127641718165,10723.659113450827,11157.09163042649,11388.494697489892,10792.782482642862,11462.195773250936,10188.067444876784,11517.433432516977,11046.082246128022,11448.46265354391,10383.8406958114,11433.508812085147,10889.98245212482,11404.516670481422,11400.015259021897,11338.979171435112,11212.10040436408,10898.146028839552,11384.908827344168,11322.346837567713,11420.462348363471,10891.050583657587,11610.513466086824,11286.182955672542,11219.72991531243,11003.585870145724,11742.122529945831,10812.314030670634,11923.552300297551,11507.438773174641,11539.17753871977,12250.476844434274,12417.18165865568,12181.734950789654,12613.641565575646,11745.098039215685,12572.2896162356,11824.06347753109,11532.463569085223,12881.742580300603,11878.919661249714,13131.837949187458,11952.620737010759,12704.966811627375,11176.012817578394,13232.547493705653,11870.222018768596,11107.804989700162,11513.313496604867,11773.250934615091,11729.228656443123,11756.923781185626,11765.54512855726,12894.865339131762,11942.092011902037,12701.991302357519,11669.336995498588,12235.675593194477,12307.698176546884,11461.738002594035,11772.259098191806,12203.55535210193,12343.633173113605,11849.622339208057,12765.850308995196,11770.428015564203,12430.53330281529,11843.442435339895,11118.333714808881,11709.849698634318,12477.83627069505,12090.409704737927,11915.007248035401,11691.233691920348,12388.342107270924,12037.079423208972,11817.807278553444,11759.517814908064,12763.714045929657,11687.037460898757,11882.658121614404,11535.515373464561,11990.7682917525,11741.206988632028,11766.61326009003,12036.697947661554
